sample_index,time_s,voltage_mV
0,0.0,2.50945
1,0.0005,2.52799
2,0.001,2.53685
3,0.0015,2.53363
4,0.002,2.53846
5,0.0025,2.53766
6,0.003,2.5441
7,0.0035,2.52557
8,0.004,2.52476
9,0.0045,2.52154
10,0.005,2.51993
11,0.0055,2.50784
12,0.006,2.50139
13,0.0065,2.49897
14,0.007,2.4893
15,0.0075,2.49414
16,0.008,2.49011
17,0.0085,2.4893
18,0.009,2.48769
19,0.0095,2.49656
20,0.01,2.50703
21,0.0105,2.52799
22,0.011,2.5304
23,0.0115,2.54733
24,0.012,2.55216
25,0.0125,2.56586
26,0.013,2.57634
27,0.0135,2.57231
28,0.014,2.58037
29,0.0145,2.56989
30,0.015,2.58601
31,0.0155,2.57392
32,0.016,2.56505
33,0.0165,2.56586
34,0.017,2.54894
35,0.0175,2.54007
36,0.018,2.52073
37,0.0185,2.50784
38,0.019,2.49736
39,0.0195,2.49495
40,0.02,2.49656
41,0.0205,2.49333
42,0.021,2.49656
43,0.0215,2.50059
44,0.022,2.50462
45,0.0225,2.51187
46,0.023,2.52154
47,0.0235,2.52879
48,0.024,2.5304
49,0.0245,2.56022
50,0.025,2.57311
51,0.0255,2.58681
52,0.026,2.58601
53,0.0265,2.59004
54,0.027,2.59971
55,0.0275,2.59407
56,0.028,2.5844
57,0.0285,2.58117
58,0.029,2.58198
59,0.0295,2.58278
60,0.03,2.57875
61,0.0305,2.56344
62,0.031,2.56667
63,0.0315,2.55216
64,0.032,2.557
65,0.0325,2.54652
66,0.033,2.54813
67,0.0335,2.54571
68,0.034,2.55055
69,0.0345,2.57231
70,0.035,2.56183
71,0.0355,2.56425
72,0.036,2.58278
73,0.0365,2.59245
74,0.037,2.60374
75,0.0375,2.61341
76,0.038,2.61018
77,0.0385,2.63597
78,0.039,2.62147
79,0.0395,2.62147
80,0.04,2.63275
81,0.0405,2.61341
82,0.041,2.61744
83,0.0415,2.6126
84,0.042,2.60615
85,0.0425,2.59245
86,0.043,2.57795
87,0.0435,2.56747
88,0.044,2.56989
89,0.0445,2.557
90,0.045,2.56505
91,0.0455,2.55136
92,0.046,2.55861
93,0.0465,2.557
94,0.047,2.557
95,0.0475,2.57875
96,0.048,2.57473
97,0.0485,2.59245
98,0.049,2.60051
99,0.0495,2.60857
100,0.05,2.60777
101,0.0505,2.63033
102,0.051,2.63436
103,0.0515,2.63436
104,0.052,2.63194
105,0.0525,2.63436
106,0.053,2.63516
107,0.0535,2.63194
108,0.054,2.62872
109,0.0545,2.6126
110,0.055,2.61582
111,0.0555,2.60374
112,0.056,2.59971
113,0.0565,2.59971
114,0.057,2.59568
115,0.0575,2.59729
116,0.058,2.59568
117,0.0585,2.59971
118,0.059,2.59971
119,0.0595,2.60374
120,0.06,2.62549
121,0.0605,2.62227
122,0.061,2.63839
123,0.0615,2.64645
124,0.062,2.66015
125,0.0625,2.65612
126,0.063,2.67465
127,0.0635,2.68271
128,0.064,2.67868
129,0.0645,2.68996
130,0.065,2.68352
131,0.0655,2.68916
132,0.066,2.67707
133,0.0665,2.66901
134,0.067,2.66418
135,0.0675,2.67062
136,0.068,2.65853
137,0.0685,2.64081
138,0.069,2.64
139,0.0695,2.62952
140,0.07,2.62711
141,0.0705,2.63919
142,0.071,2.64161
143,0.0715,2.63355
144,0.072,2.64484
145,0.0725,2.65451
146,0.073,2.66015
147,0.0735,2.66015
148,0.074,2.68593
149,0.0745,2.70527
150,0.075,2.7222
151,0.0755,2.72864
152,0.076,2.7359
153,0.0765,2.74154
154,0.077,2.73751
155,0.0775,2.74396
156,0.078,2.75443
157,0.0785,2.74637
158,0.079,2.74154
159,0.0795,2.73106
160,0.08,2.71575
161,0.0805,2.70125
162,0.081,2.68835
163,0.0815,2.68271
164,0.082,2.66821
165,0.0825,2.66418
166,0.083,2.66498
167,0.0835,2.67062
168,0.084,2.66659
169,0.0845,2.67546
170,0.085,2.68593
171,0.0855,2.7093
172,0.086,2.723
173,0.0865,2.73509
174,0.087,2.74799
175,0.0875,2.76088
176,0.088,2.75927
177,0.0885,2.77377
178,0.089,2.77297
179,0.0895,2.77377
180,0.09,2.77861
181,0.0905,2.78344
182,0.091,2.76974
183,0.0915,2.7633
184,0.092,2.76249
185,0.0925,2.74879
186,0.093,2.74557
187,0.0935,2.73106
188,0.094,2.7359
189,0.0945,2.73106
190,0.095,2.68996
191,0.0955,2.72139
192,0.096,2.72784
193,0.0965,2.73026
194,0.097,2.73267
195,0.0975,2.7367
196,0.098,2.73509
197,0.0985,2.75121
198,0.099,2.7633
199,0.0995,2.78183
200,0.1,2.78505
201,0.1005,2.78908
202,0.101,2.81245
203,0.1015,2.80198
204,0.102,2.81245
205,0.1025,2.81729
206,0.103,2.8044
207,0.1035,2.79795
208,0.104,2.7504
209,0.1045,2.78022
210,0.105,2.76007
211,0.1055,2.7504
212,0.106,2.74637
213,0.1065,2.74879
214,0.107,2.73832
215,0.1075,2.73348
216,0.108,2.71011
217,0.1085,2.71011
218,0.109,2.70447
219,0.1095,2.69802
220,0.11,2.71172
221,0.1105,2.41355
222,0.111,2.40872
223,0.1115,2.4063
224,0.112,2.39985
225,0.1125,2.39582
226,0.113,2.39502
227,0.1135,2.38051
228,0.114,2.37407
229,0.1145,2.37245
230,0.115,2.36117
231,0.1155,2.35473
232,0.116,2.3507
233,0.1165,2.34747
234,0.117,2.35231
235,0.1175,2.35553
236,0.118,2.35795
237,0.1185,2.36117
238,0.119,2.37648
239,0.1195,2.37971
240,0.12,2.38615
241,0.1205,2.3926
242,0.121,2.4063
243,0.1215,2.41516
244,0.122,2.42806
245,0.1225,2.42242
246,0.123,2.44982
247,0.1235,2.44095
248,0.124,2.44256
249,0.1245,2.44176
250,0.125,2.44982
251,0.1255,2.44256
252,0.126,2.40711
253,0.1265,2.39502
254,0.127,2.39582
255,0.1275,2.37729
256,0.128,2.36359
257,0.1285,2.35473
258,0.129,2.35875
259,0.1295,2.35553
260,0.13,2.34505
261,0.1305,2.35473
262,0.131,2.36601
263,0.1315,2.38132
264,0.132,2.38938
265,0.1325,2.39663
266,0.133,2.40066
267,0.1335,2.41355
268,0.134,2.41516
269,0.1345,2.41275
270,0.135,2.40388
271,0.1355,2.41194
272,0.136,2.41516
273,0.1365,2.41919
274,0.137,2.41919
275,0.1375,2.41033
276,0.138,2.40711
277,0.1385,2.39341
278,0.139,2.38132
279,0.1395,2.3789
280,0.14,2.35231
281,0.1405,2.35795
282,0.141,2.36601
283,0.1415,2.3507
284,0.142,2.36117
285,0.1425,2.35956
286,0.143,2.36117
287,0.1435,2.36278
288,0.144,2.38293
289,0.1445,2.37648
290,0.145,2.40308
291,0.1455,2.41114
292,0.146,2.41275
293,0.1465,2.43612
294,0.147,2.43934
295,0.1475,2.44095
296,0.148,2.45143
297,0.1485,2.43692
298,0.149,2.43773
299,0.1495,2.44901
300,0.15,2.44498
301,0.1505,2.43289
302,0.151,2.42484
303,0.1515,2.40872
304,0.152,2.39018
305,0.1525,2.37487
306,0.153,2.37568
307,0.1535,2.35714
308,0.154,2.35473
309,0.1545,2.34586
310,0.155,2.3507
311,0.1555,2.35473
312,0.156,2.34828
313,0.1565,2.36359
314,0.157,2.37648
315,0.1575,2.39099
316,0.158,2.39421
317,0.1585,2.39744
318,0.159,2.41436
319,0.1595,2.41033
320,0.16,2.42645
321,0.1605,2.42403
322,0.161,2.42806
323,0.1615,2.42806
324,0.162,2.43209
325,0.1625,2.43128
326,0.163,2.42322
327,0.1635,2.41114
328,0.164,2.40227
329,0.1645,2.39099
330,0.165,2.38051
331,0.1655,2.37729
332,0.166,2.3789
333,0.1665,2.36117
334,0.167,2.35714
335,0.1675,2.36359
336,0.168,2.35473
337,0.1685,2.36359
338,0.169,2.3789
339,0.1695,2.39179
340,0.17,2.39663
341,0.1705,2.40227
342,0.171,2.41516
343,0.1715,2.41839
344,0.172,2.42725
345,0.1725,2.42725
346,0.173,2.43048
347,0.1735,2.43612
348,0.174,2.43048
349,0.1745,2.43451
350,0.175,2.41919
351,0.1755,2.38938
352,0.176,2.38938
353,0.1765,2.38374
354,0.177,2.37487
355,0.1775,2.36359
356,0.178,2.3507
357,0.1785,2.3515
358,0.179,2.34022
359,0.1795,2.34505
360,0.18,2.33297
361,0.1805,2.3507
362,0.181,2.35473
363,0.1815,2.36601
364,0.182,2.3789
365,0.1825,2.38535
366,0.183,2.37568
367,0.1835,2.39985
368,0.184,2.41194
369,0.1845,2.42967
370,0.185,2.44821
371,0.1855,2.44337
372,0.186,2.43773
373,0.1865,2.4337
374,0.187,2.43048
375,0.1875,2.42564
376,0.188,2.41919
377,0.1885,2.41355
378,0.189,2.38938
379,0.1895,2.37326
380,0.19,2.34828
381,0.1905,2.3378
382,0.191,2.3378
383,0.1915,2.3378
384,0.192,2.3378
385,0.1925,2.33216
386,0.193,2.32974
387,0.1935,2.34747
388,0.194,2.3507
389,0.1945,2.35553
390,0.195,2.37326
391,0.1955,2.38051
392,0.196,2.3926
393,0.1965,2.4063
394,0.197,2.41275
395,0.1975,2.42886
396,0.198,2.43612
397,0.1985,2.44982
398,0.199,2.44095
399,0.1995,2.44176
400,0.2,2.43209
401,0.2005,2.43209
402,0.201,2.42886
403,0.2015,2.41033
404,0.202,2.40549
405,0.2025,2.38051
406,0.203,2.38696
407,0.2035,2.37326
408,0.204,2.37407
409,0.2045,2.38938
410,0.205,2.37568
411,0.2055,2.37004
412,0.206,2.38051
413,0.2065,2.38615
414,0.207,2.39985
415,0.2075,2.4063
416,0.208,2.42564
417,0.2085,2.44821
418,0.209,2.45707
419,0.2095,2.45788
420,0.21,2.4619
421,0.2105,2.45868
422,0.211,2.46352
423,0.2115,2.44982
424,0.212,2.4474
425,0.2125,2.45062
426,0.213,2.43451
427,0.2135,2.43289
428,0.214,2.42484
429,0.2145,2.39744
430,0.215,2.39179
431,0.2155,2.38857
432,0.216,2.37971
433,0.2165,2.38857
434,0.217,2.36681
435,0.2175,2.37245
436,0.218,2.37004
437,0.2185,2.38051
438,0.219,2.39502
439,0.2195,2.40227
440,0.22,2.39744
441,0.2205,2.42
442,0.221,2.43048
443,0.2215,2.4337
444,0.222,2.44498
445,0.2225,2.45062
446,0.223,2.45626
447,0.2235,2.45707
448,0.224,2.45304
449,0.2245,2.45788
450,0.225,2.45546
451,0.2255,2.45304
452,0.226,2.44901
453,0.2265,2.45143
454,0.227,2.44982
455,0.2275,2.44418
456,0.228,2.43773
457,0.2285,2.42806
458,0.229,2.42242
459,0.2295,2.43048
460,0.23,2.42564
461,0.2305,2.42806
462,0.231,2.43128
463,0.2315,2.44498
464,0.232,2.44418
465,0.2325,2.46674
466,0.233,2.47238
467,0.2335,2.48608
468,0.234,2.49172
469,0.2345,2.51026
470,0.235,2.503
471,0.2355,2.5022
472,0.236,2.50542
473,0.2365,2.49897
474,0.237,2.49253
475,0.2375,2.48769
476,0.238,2.46674
477,0.2385,2.46029
478,0.239,2.45385
479,0.2395,2.44015
480,0.24,2.42886
481,0.2405,2.43048
482,0.241,2.41355
483,0.2415,2.40308
484,0.242,2.41275
485,0.2425,2.38938
486,0.243,2.40227
487,0.2435,2.40952
488,0.244,2.42322
489,0.2445,2.43289
490,0.245,2.44095
491,0.2455,2.44095
492,0.246,2.44256
493,0.2465,2.45385
494,0.247,2.47077
495,0.2475,2.48205
496,0.248,2.4756
497,0.2485,2.47963
498,0.249,2.47722
499,0.2495,2.48205
500,0.25,2.46916
501,0.2505,2.45546
502,0.251,2.43773
503,0.2515,2.43612
504,0.252,2.41597
505,0.2525,2.38938
506,0.253,2.38051
507,0.2535,2.37165
508,0.254,2.36117
509,0.2545,2.36601
510,0.255,2.35311
511,0.2555,2.3507
512,0.256,2.35956
513,0.2565,2.36037
514,0.257,2.35956
515,0.2575,2.37084
516,0.258,2.38857
517,0.2585,2.39744
518,0.259,2.4063
519,0.2595,2.41516
520,0.26,2.41033
521,0.2605,2.42564
522,0.261,2.43531
523,0.2615,2.43692
524,0.262,2.44256
525,0.2625,2.43209
526,0.263,2.43612
527,0.2635,2.43853
528,0.264,2.42564
529,0.2645,2.40872
530,0.265,2.38615
531,0.2655,2.3789
532,0.266,2.35473
533,0.2665,2.34989
534,0.267,2.33538
535,0.2675,2.34425
536,0.268,2.34264
537,0.2685,2.36037
538,0.269,2.37245
539,0.2695,2.37004
540,0.27,2.37487
541,0.2705,2.38051
542,0.271,2.40308
543,0.2715,2.40147
544,0.272,2.40227
545,0.2725,2.40872
546,0.273,2.40227
547,0.2735,2.41758
548,0.274,2.41678
549,0.2745,2.41919
550,0.275,2.40147
551,0.2755,2.40227
552,0.276,2.39099
553,0.2765,2.38938
554,0.277,2.37407
555,0.2775,2.37971
556,0.278,2.35473
557,0.2785,2.35795
558,0.279,2.36037
559,0.2795,2.3507
560,0.28,2.34828
561,0.2805,2.35392
562,0.281,2.36037
563,0.2815,2.36601
564,0.282,2.36359
565,0.2825,2.39582
566,0.283,2.39663
567,0.2835,2.40388
568,0.284,2.42161
569,0.2845,2.42806
570,0.285,2.44418
571,0.2855,2.45143
572,0.286,2.44015
573,0.2865,2.44015
574,0.287,2.44337
575,0.2875,2.42806
576,0.288,2.43209
577,0.2885,2.41919
578,0.289,2.43128
579,0.2895,2.39985
580,0.29,2.39905
581,0.2905,2.37407
582,0.291,2.37568
583,0.2915,2.36762
584,0.292,2.37407
585,0.2925,2.3644
586,0.293,2.35392
587,0.2935,2.36198
588,0.294,2.36923
589,0.2945,2.36198
590,0.295,2.38051
591,0.2955,2.38051
592,0.296,2.39582
593,0.2965,2.4063
594,0.297,2.41275
595,0.2975,2.42806
596,0.298,2.43289
597,0.2985,2.43853
598,0.299,2.43692
599,0.2995,2.42322
600,0.3,2.41275
601,0.3005,2.41355
602,0.301,2.41114
603,0.3015,2.40711
604,0.302,2.38293
605,0.3025,2.38212
606,0.303,2.37004
607,0.3035,2.36117
608,0.304,2.36037
609,0.3045,2.35392
610,0.305,2.3507
611,0.3055,2.34989
612,0.306,2.35473
613,0.3065,2.35473
614,0.307,2.36117
615,0.3075,2.37165
616,0.308,2.38696
617,0.3085,2.37971
618,0.309,2.38938
619,0.3095,2.39985
620,0.31,2.41839
621,0.3105,2.41033
622,0.311,2.42403
623,0.3115,2.42806
624,0.312,2.42725
625,0.3125,2.42806
626,0.313,2.42564
627,0.3135,2.40549
628,0.314,2.39663
629,0.3145,2.38857
630,0.315,2.38696
631,0.3155,2.36762
632,0.316,2.35231
633,0.3165,2.34505
634,0.317,2.34022
635,0.3175,2.34183
636,0.318,2.3378
637,0.3185,2.34586
638,0.319,2.35714
639,0.3195,2.36037
640,0.32,2.37568
641,0.3205,2.38777
642,0.321,2.40227
643,0.3215,2.42322
644,0.322,2.45304
645,0.3225,2.48205
646,0.323,2.503
647,0.3235,2.53282
648,0.324,2.56022
649,0.3245,2.57392
650,0.325,2.58278
651,0.3255,2.59407
652,0.326,2.59971
653,0.3265,2.60132
654,0.327,2.60615
655,0.3275,2.61018
656,0.328,2.6263
657,0.3285,2.65128
658,0.329,2.70205
659,0.3295,2.74154
660,0.33,2.78183
661,0.3305,2.81971
662,0.331,2.86645
663,0.3315,2.90271
664,0.332,2.94864
665,0.3325,2.99458
666,0.333,3.04938
667,0.3335,3.06147
668,0.334,3.12835
669,0.3345,3.15414
670,0.335,3.15414
671,0.3355,3.163
672,0.336,3.20007
673,0.3365,3.1904
674,0.337,3.20571
675,0.3375,3.20571
676,0.338,3.18315
677,0.3385,3.17993
678,0.339,3.16864
679,0.3395,3.12835
680,0.34,3.08081
681,0.3405,3.02117
682,0.341,2.98007
683,0.3415,2.92286
684,0.342,2.86242
685,0.3425,2.79956
686,0.343,2.76571
687,0.3435,2.7633
688,0.344,2.74234
689,0.3445,2.73106
690,0.345,2.7093
691,0.3455,2.6819
692,0.346,2.66659
693,0.3465,2.64725
694,0.347,2.63919
695,0.3475,2.61824
696,0.348,2.59971
697,0.3485,2.56505
698,0.349,2.50703
699,0.3495,2.45143
700,0.35,2.41436
701,0.3505,2.3233
702,0.351,2.25722
703,0.3515,2.21531
704,0.352,2.18791
705,0.3525,2.18388
706,0.353,2.17018
707,0.3535,2.15729
708,0.354,2.15165
709,0.3545,2.17985
710,0.355,2.19516
711,0.3555,2.19355
712,0.356,2.20322
713,0.3565,2.21531
714,0.357,2.23546
715,0.3575,2.25883
716,0.358,2.28623
717,0.3585,2.30718
718,0.359,2.3378
719,0.3595,2.34183
720,0.36,2.35634
721,0.3605,2.37971
722,0.361,2.38938
723,0.3615,2.40227
724,0.362,2.41033
725,0.3625,2.40872
726,0.363,2.40711
727,0.3635,2.41919
728,0.364,2.42806
729,0.3645,2.42484
730,0.365,2.40711
731,0.3655,2.40469
732,0.366,2.41275
733,0.3665,2.38857
734,0.367,2.38535
735,0.3675,2.38777
736,0.368,2.38535
737,0.3685,2.38696
738,0.369,2.37487
739,0.3695,2.37245
740,0.37,2.37971
741,0.3705,2.38615
742,0.371,2.38938
743,0.3715,2.40469
744,0.372,2.41919
745,0.3725,2.42484
746,0.373,2.43209
747,0.3735,2.43853
748,0.374,2.43612
749,0.3745,2.44176
750,0.375,2.44337
751,0.3755,2.44659
752,0.376,2.43612
753,0.3765,2.42725
754,0.377,2.41436
755,0.3775,2.40711
756,0.378,2.39744
757,0.3785,2.39663
758,0.379,2.38293
759,0.3795,2.37165
760,0.38,2.35875
761,0.3805,2.3507
762,0.381,2.35473
763,0.3815,2.35956
764,0.382,2.36359
765,0.3825,2.37487
766,0.383,2.37165
767,0.3835,2.36681
768,0.384,2.38535
769,0.3845,2.39341
770,0.385,2.40469
771,0.3855,2.41275
772,0.386,2.42161
773,0.3865,2.42484
774,0.387,2.42967
775,0.3875,2.42967
776,0.388,2.43451
777,0.3885,2.43289
778,0.389,2.43128
779,0.3895,2.43612
780,0.39,2.43128
781,0.3905,2.40388
782,0.391,2.39341
783,0.3915,2.38938
784,0.392,2.38696
785,0.3925,2.38535
786,0.393,2.37648
787,0.3935,2.39502
788,0.394,2.38938
789,0.3945,2.40147
790,0.395,2.40227
791,0.3955,2.41516
792,0.396,2.41919
793,0.3965,2.44256
794,0.397,2.44418
795,0.3975,2.45868
796,0.398,2.46674
797,0.3985,2.4619
798,0.399,2.46674
799,0.3995,2.47238
800,0.4,2.47399
801,0.4005,2.46513
802,0.401,2.46916
803,0.4015,2.46029
804,0.402,2.46432
805,0.4025,2.43853
806,0.403,2.43289
807,0.4035,2.41919
808,0.404,2.41275
809,0.4045,2.40388
810,0.405,2.39824
811,0.4055,2.38857
812,0.406,2.39179
813,0.4065,2.39824
814,0.407,2.39582
815,0.4075,2.40066
816,0.408,2.41516
817,0.4085,2.44498
818,0.409,2.45143
819,0.4095,2.45385
820,0.41,2.4619
821,0.4105,2.47963
822,0.411,2.47883
823,0.4115,2.46916
824,0.412,2.4748
825,0.4125,2.46513
826,0.413,2.46996
827,0.4135,2.46352
828,0.414,2.43612
829,0.4145,2.44256
830,0.415,2.44256
831,0.4155,2.42886
832,0.416,2.41355
833,0.4165,2.40872
834,0.417,2.4063
835,0.4175,2.39985
836,0.418,2.39341
837,0.4185,2.39341
838,0.419,2.40227
839,0.4195,2.40388
840,0.42,2.41436
841,0.4205,2.41758
842,0.421,2.43209
843,0.4215,2.43048
844,0.422,2.45304
845,0.4225,2.45304
846,0.423,2.47238
847,0.4235,2.47722
848,0.424,2.4756
849,0.4245,2.47802
850,0.425,2.48044
851,0.4255,2.48608
852,0.426,2.47238
853,0.4265,2.46029
854,0.427,2.44982
855,0.4275,2.45143
856,0.428,2.45304
857,0.4285,2.43531
858,0.429,2.43128
859,0.4295,2.41355
860,0.43,2.42806
861,0.4305,2.42081
862,0.431,2.41436
863,0.4315,2.41839
864,0.432,2.42484
865,0.4325,2.43531
866,0.433,2.44982
867,0.4335,2.45385
868,0.434,2.46755
869,0.4345,2.46674
870,0.435,2.4893
871,0.4355,2.49011
872,0.436,2.49253
873,0.4365,2.49011
874,0.437,2.50462
875,0.4375,2.49817
876,0.438,2.50462
877,0.4385,2.49333
878,0.439,2.49011
879,0.4395,2.47641
880,0.44,2.46916
881,0.4405,2.46352
882,0.441,2.45949
883,0.4415,2.45062
884,0.442,2.44256
885,0.4425,2.45385
886,0.443,2.45143
887,0.4435,2.46513
888,0.444,2.46674
889,0.4445,2.45143
890,0.445,2.4619
891,0.4455,2.47963
892,0.446,2.50542
893,0.4465,2.50784
894,0.447,2.52154
895,0.4475,2.54571
896,0.448,2.5441
897,0.4485,2.55055
898,0.449,2.55861
899,0.4495,2.557
900,0.45,2.55377
901,0.4505,2.5441
902,0.451,2.53846
903,0.4515,2.53846
904,0.452,2.53282
905,0.4525,2.5304
906,0.453,2.52879
907,0.4535,2.50703
908,0.454,2.503
909,0.4545,2.503
910,0.455,2.503
911,0.4555,2.49253
912,0.456,2.48689
913,0.4565,2.49011
914,0.457,2.48044
915,0.4575,2.49656
916,0.458,2.49656
917,0.4585,2.5159
918,0.459,2.51832
919,0.4595,2.53766
920,0.46,2.56344
921,0.4605,2.56586
922,0.461,2.57634
923,0.4615,2.57473
924,0.462,2.58601
925,0.4625,2.58923
926,0.463,2.58681
927,0.4635,2.59326
928,0.464,2.57553
929,0.4645,2.58198
930,0.465,2.57392
931,0.4655,2.55458
932,0.466,2.56747
933,0.4665,2.55941
934,0.467,2.55055
935,0.4675,2.55377
936,0.468,2.5441
937,0.4685,2.54894
938,0.469,2.54813
939,0.4695,2.55055
940,0.47,2.56022
941,0.4705,2.56344
942,0.471,2.57795
943,0.4715,2.5715
944,0.472,2.58681
945,0.4725,2.60857
946,0.473,2.61905
947,0.4735,2.62147
948,0.474,2.64403
949,0.4745,2.63194
950,0.475,2.63516
951,0.4755,2.64081
952,0.476,2.64322
953,0.4765,2.63758
954,0.477,2.63275
955,0.4775,2.62147
956,0.478,2.61582
957,0.4785,2.61018
958,0.479,2.59568
959,0.4795,2.58681
960,0.48,2.59326
961,0.4805,2.58037
962,0.481,2.58037
963,0.4815,2.57795
964,0.482,2.58681
965,0.4825,2.5989
966,0.483,2.60374
967,0.4835,2.60777
968,0.484,2.61663
969,0.4845,2.6263
970,0.485,2.64081
971,0.4855,2.64886
972,0.486,2.66015
973,0.4865,2.65692
974,0.487,2.65451
975,0.4875,2.65128
976,0.488,2.64886
977,0.4885,2.65612
978,0.489,2.64886
979,0.4895,2.63839
980,0.49,2.63355
981,0.4905,2.62549
982,0.491,2.61341
983,0.4915,2.60857
984,0.492,2.60857
985,0.4925,2.59245
986,0.493,2.59487
987,0.4935,2.5844
988,0.494,2.60293
989,0.4945,2.5981
990,0.495,2.60454
991,0.4955,2.6126
992,0.496,2.60374
993,0.4965,2.61824
994,0.497,2.62872
995,0.4975,2.63355
996,0.498,2.6537
997,0.4985,2.66015
998,0.499,2.67707
999,0.4995,2.67788
1000,0.5,2.68835
1001,0.5005,2.6948
1002,0.501,2.6948
1003,0.5015,2.68513
1004,0.502,2.6811
1005,0.5025,2.6819
1006,0.503,2.66659
1007,0.5035,2.65612
1008,0.504,2.64081
1009,0.5045,2.63194
1010,0.505,2.62227
1011,0.5055,2.62308
1012,0.506,2.60857
1013,0.5065,2.60293
1014,0.507,2.59004
1015,0.5075,2.61824
1016,0.508,2.61099
1017,0.5085,2.6126
1018,0.509,2.62791
1019,0.5095,2.63839
1020,0.51,2.64645
1021,0.5105,2.66337
1022,0.511,2.66095
1023,0.5115,2.66579
1024,0.512,2.6674
1025,0.5125,2.66418
1026,0.513,2.65531
1027,0.5135,2.64645
1028,0.514,2.64967
1029,0.5145,2.61421
1030,0.515,2.59407
1031,0.5155,2.59487
1032,0.516,2.57392
1033,0.5165,2.56022
1034,0.517,2.5441
1035,0.5175,2.5304
1036,0.518,2.51187
1037,0.5185,2.51187
1038,0.519,2.49253
1039,0.5195,2.49011
1040,0.52,2.48608
1041,0.5205,2.48527
1042,0.521,2.49011
1043,0.5215,2.48447
1044,0.522,2.49414
1045,0.5225,2.503
1046,0.523,2.503
1047,0.5235,2.50945
1048,0.524,2.51832
1049,0.5245,2.51026
1050,0.525,2.50542
1051,0.5255,2.49011
1052,0.526,2.47963
1053,0.5265,2.47399
1054,0.527,2.45788
1055,0.5275,2.4474
1056,0.528,2.43048
1057,0.5285,2.40388
1058,0.529,2.39985
1059,0.5295,2.37648
1060,0.53,2.36359
1061,0.5305,2.35875
1062,0.531,2.34989
1063,0.5315,2.34908
1064,0.532,2.33458
1065,0.5325,2.33136
1066,0.533,2.32249
1067,0.5335,2.33538
1068,0.534,2.34667
1069,0.5345,2.35553
1070,0.535,2.35553
1071,0.5355,2.37407
1072,0.536,2.37971
1073,0.5365,2.38535
1074,0.537,2.39985
1075,0.5375,2.39341
1076,0.538,2.39582
1077,0.5385,2.39179
1078,0.539,2.38535
1079,0.5395,2.37407
1080,0.54,2.37004
1081,0.5405,2.36037
1082,0.541,2.34989
1083,0.5415,2.32491
1084,0.542,2.32491
1085,0.5425,2.31363
1086,0.543,2.30718
1087,0.5435,2.30234
1088,0.544,2.29187
1089,0.5445,2.2967
1090,0.545,2.30154
1091,0.5455,2.30718
1092,0.546,2.31443
1093,0.5465,2.31363
1094,0.547,2.31846
1095,0.5475,2.32249
1096,0.548,2.3378
1097,0.5485,2.34828
1098,0.549,2.3507
1099,0.5495,2.35473
1100,0.55,2.36037
1101,0.5505,2.35795
1102,0.551,2.35795
1103,0.5515,2.35392
1104,0.552,2.34425
1105,0.5525,2.34264
1106,0.553,2.32249
1107,0.5535,2.31121
1108,0.554,2.29187
1109,0.5545,2.27736
1110,0.555,2.26044
1111,0.5555,2.2548
1112,0.556,2.25238
1113,0.5565,2.23868
1114,0.557,2.24352
1115,0.5575,2.23223
1116,0.558,2.24674
1117,0.5585,2.2411
1118,0.559,2.25238
1119,0.5595,2.26689
1120,0.56,2.2685
1121,0.5605,2.28139
1122,0.561,2.31524
1123,0.5615,2.2967
1124,0.562,2.3104
1125,0.5625,2.31443
1126,0.563,2.32088
1127,0.5635,2.32491
1128,0.564,2.32491
1129,0.5645,2.31846
1130,0.565,2.31201
1131,0.5655,2.3096
1132,0.566,2.283
1133,0.5665,2.27333
1134,0.567,2.26769
1135,0.5675,2.26044
1136,0.568,2.2548
1137,0.5685,2.23626
1138,0.569,2.24835
1139,0.5695,2.23949
1140,0.57,2.25722
1141,0.5705,2.25158
1142,0.571,2.26527
1143,0.5715,2.27253
1144,0.572,2.28381
1145,0.5725,2.28784
1146,0.573,2.30315
1147,0.5735,2.31363
1148,0.574,2.33136
1149,0.5745,2.32974
1150,0.575,2.33941
1151,0.5755,2.33216
1152,0.576,2.33538
1153,0.5765,2.32894
1154,0.577,2.32894
1155,0.5775,2.31604
1156,0.578,2.30718
1157,0.5785,2.29993
1158,0.579,2.28623
1159,0.5795,2.27253
1160,0.58,2.26044
1161,0.5805,2.26286
1162,0.581,2.26044
1163,0.5815,2.2548
1164,0.582,2.22901
1165,0.5825,2.26527
1166,0.583,2.26769
1167,0.5835,2.27656
1168,0.584,2.29187
1169,0.5845,2.27736
1170,0.585,2.30234
1171,0.5855,2.31282
1172,0.586,2.31524
1173,0.5865,2.32249
1174,0.587,2.32249
1175,0.5875,2.32249
1176,0.588,2.3233
1177,0.5885,2.31443
1178,0.589,2.3096
1179,0.5895,2.29912
1180,0.59,2.29429
1181,0.5905,2.27656
1182,0.591,2.27011
1183,0.5915,2.26608
1184,0.592,2.25238
1185,0.5925,2.23788
1186,0.593,2.22579
1187,0.5935,2.22579
1188,0.594,2.22418
1189,0.5945,2.22901
1190,0.595,2.23143
1191,0.5955,2.22982
1192,0.596,2.22579
1193,0.5965,2.24029
1194,0.597,2.23626
1195,0.5975,2.25722
1196,0.598,2.27656
1197,0.5985,2.29267
1198,0.599,2.29026
1199,0.5995,2.31443
1200,0.6,2.30718
1201,0.6005,2.31766
1202,0.601,2.31846
1203,0.6015,2.32249
1204,0.602,2.3096
1205,0.6025,2.30476
1206,0.603,2.30879
1207,0.6035,2.29912
1208,0.604,2.2822
1209,0.6045,2.28139
1210,0.605,2.27656
1211,0.6055,2.25963
1212,0.606,2.26447
1213,0.6065,2.2685
1214,0.607,2.26125
1215,0.6075,2.26447
1216,0.608,2.27978
1217,0.6085,2.29832
1218,0.609,2.29509
1219,0.6095,2.30637
1220,0.61,2.31604
1221,0.6105,2.32894
1222,0.611,2.33377
1223,0.6115,2.33941
1224,0.612,2.34183
1225,0.6125,2.33619
1226,0.613,2.34586
1227,0.6135,2.34183
1228,0.614,2.33377
1229,0.6145,2.33136
1230,0.615,2.3378
1231,0.6155,2.31201
1232,0.616,2.30879
1233,0.6165,2.30234
1234,0.617,2.2959
1235,0.6175,2.28784
1236,0.618,2.29832
1237,0.6185,2.29751
1238,0.619,2.28784
1239,0.6195,2.27333
1240,0.62,2.2685
1241,0.6205,2.27817
1242,0.621,2.29026
1243,0.6215,2.30154
1244,0.622,2.2967
1245,0.6225,2.31282
1246,0.623,2.31363
1247,0.6235,2.33941
1248,0.624,2.32974
1249,0.6245,2.33941
1250,0.625,2.34828
1251,0.6255,2.34908
1252,0.626,2.34667
1253,0.6265,2.33941
1254,0.627,2.3241
1255,0.6275,2.31927
1256,0.628,2.31443
1257,0.6285,2.29106
1258,0.629,1.9663
1259,0.6295,2.26689
1260,0.63,2.25319
1261,0.6305,2.24835
1262,0.631,2.24996
1263,0.6315,2.2411
1264,0.632,2.26044
1265,0.6325,2.27978
1266,0.633,2.28059
1267,0.6335,2.29187
1268,0.634,2.29429
1269,0.6345,2.2967
1270,0.635,2.31201
1271,0.6355,2.3096
1272,0.636,2.32007
1273,0.6365,2.33538
1274,0.637,2.33619
1275,0.6375,2.33297
1276,0.638,2.32733
1277,0.6385,2.32652
1278,0.639,2.32491
1279,0.6395,2.31363
1280,0.64,2.32088
1281,0.6405,2.30315
1282,0.641,2.2967
1283,0.6415,2.28462
1284,0.642,2.26689
1285,0.6425,2.26689
1286,0.643,2.25802
1287,0.6435,2.25722
1288,0.644,2.26125
1289,0.6445,2.26447
1290,0.645,2.25641
1291,0.6455,2.25722
1292,0.646,2.27897
1293,0.6465,2.28542
1294,0.647,2.28059
1295,0.6475,2.30315
1296,0.648,2.30396
1297,0.6485,2.32249
1298,0.649,2.33297
1299,0.6495,2.32733
1300,0.65,2.3378
1301,0.6505,2.33136
1302,0.651,2.33216
1303,0.6515,2.33619
1304,0.652,2.32813
1305,0.6525,2.30557
1306,0.653,2.30879
1307,0.6535,2.2959
1308,0.654,2.28703
1309,0.6545,2.283
1310,0.655,2.2685
1311,0.6555,2.27736
1312,0.656,2.27978
1313,0.6565,2.26689
1314,0.657,2.26527
1315,0.6575,2.27333
1316,0.658,2.29026
1317,0.6585,2.28784
1318,0.659,2.2959
1319,0.6595,2.29993
1320,0.66,2.3241
1321,0.6605,2.32733
1322,0.661,2.33538
1323,0.6615,2.34747
1324,0.662,2.34586
1325,0.6625,2.34264
1326,0.663,2.3507
1327,0.6635,2.35473
1328,0.664,2.33941
1329,0.6645,2.33136
1330,0.665,2.33297
1331,0.6655,2.31524
1332,0.666,2.31201
1333,0.6665,2.29267
1334,0.667,2.283
1335,0.6675,2.26689
1336,0.668,2.25963
1337,0.6685,2.25399
1338,0.669,2.23546
1339,0.6695,2.23949
1340,0.67,2.22982
1341,0.6705,2.25158
1342,0.671,2.26286
1343,0.6715,2.27011
1344,0.672,2.27978
1345,0.6725,2.29509
1346,0.673,2.30073
1347,0.6735,2.31927
1348,0.674,2.33216
1349,0.6745,2.32249
1350,0.675,2.32571
1351,0.6755,2.33941
1352,0.676,2.34022
1353,0.6765,2.33619
1354,0.677,2.32733
1355,0.6775,2.33861
1356,0.678,2.33538
1357,0.6785,2.34828
1358,0.679,2.33216
1359,0.6795,2.32733
1360,0.68,2.31927
1361,0.6805,2.2967
1362,0.681,2.30396
1363,0.6815,2.30315
1364,0.682,2.29267
1365,0.6825,2.30557
1366,0.683,2.31201
1367,0.6835,2.32733
1368,0.684,2.32894
1369,0.6845,2.3241
1370,0.685,2.32894
1371,0.6855,2.34989
1372,0.686,2.34586
1373,0.6865,2.36601
1374,0.687,2.35956
1375,0.6875,2.35875
1376,0.688,2.35795
1377,0.6885,2.35231
1378,0.689,2.34828
1379,0.6895,2.34183
1380,0.69,2.33861
1381,0.6905,2.32733
1382,0.691,2.31201
1383,0.6915,2.2967
1384,0.692,2.28703
1385,0.6925,2.28784
1386,0.693,2.27736
1387,0.6935,2.2822
1388,0.694,2.27656
1389,0.6945,2.27978
1390,0.695,2.3096
1391,0.6955,2.2959
1392,0.696,2.31363
1393,0.6965,2.31604
1394,0.697,2.32974
1395,0.6975,2.34022
1396,0.698,2.35473
1397,0.6985,2.34828
1398,0.699,2.36278
1399,0.6995,2.37568
1400,0.7,2.37648
1401,0.7005,2.38535
1402,0.701,2.3789
1403,0.7015,2.38374
1404,0.702,2.3789
1405,0.7025,2.37568
1406,0.703,2.35553
1407,0.7035,2.34908
1408,0.704,2.34747
1409,0.7045,2.33941
1410,0.705,2.32491
1411,0.7055,2.3241
1412,0.706,2.31604
1413,0.7065,2.30637
1414,0.707,2.30396
1415,0.7075,2.30073
1416,0.708,2.30718
1417,0.7085,2.3241
1418,0.709,2.32491
1419,0.7095,2.32894
1420,0.71,2.3507
1421,0.7105,2.36601
1422,0.711,2.36601
1423,0.7115,2.37648
1424,0.712,2.38212
1425,0.7125,2.38696
1426,0.713,2.38938
1427,0.7135,2.39099
1428,0.714,2.38696
1429,0.7145,2.3926
1430,0.715,2.37084
1431,0.7155,2.35875
1432,0.716,2.34828
1433,0.7165,2.3378
1434,0.717,2.32007
1435,0.7175,2.31766
1436,0.718,2.30879
1437,0.7185,2.30073
1438,0.719,2.29509
1439,0.7195,2.27897
1440,0.72,2.28462
1441,0.7205,2.29026
1442,0.721,2.283
1443,0.7215,2.27736
1444,0.722,2.30315
1445,0.7225,2.2967
1446,0.723,2.31201
1447,0.7235,2.30799
1448,0.724,2.3233
1449,0.7245,2.32894
1450,0.725,2.32491
1451,0.7255,2.33458
1452,0.726,2.3507
1453,0.7265,2.337
1454,0.727,2.3378
1455,0.7275,2.337
1456,0.728,2.33377
1457,0.7285,2.33538
1458,0.729,2.32249
1459,0.7295,2.30557
1460,0.73,2.29832
1461,0.7305,2.2967
1462,0.731,2.28139
1463,0.7315,2.27978
1464,0.732,2.283
1465,0.7325,2.26689
1466,0.733,2.26447
1467,0.7335,2.26769
1468,0.734,2.28059
1469,0.7345,2.28623
1470,0.735,2.28462
1471,0.7355,2.2967
1472,0.736,2.30637
1473,0.7365,2.31604
1474,0.737,2.31201
1475,0.7375,2.32169
1476,0.738,2.32249
1477,0.7385,2.31846
1478,0.739,2.31201
1479,0.7395,2.31363
1480,0.74,2.32088
1481,0.7405,2.31201
1482,0.741,2.29026
1483,0.7415,2.28462
1484,0.742,2.26044
1485,0.7425,2.25238
1486,0.743,2.25399
1487,0.7435,2.25158
1488,0.744,2.25802
1489,0.7445,2.24835
1490,0.745,2.24432
1491,0.7455,2.25399
1492,0.746,2.25399
1493,0.7465,2.26447
1494,0.747,2.283
1495,0.7475,2.27656
1496,0.748,2.28462
1497,0.7485,2.29832
1498,0.749,2.31121
1499,0.7495,2.32007
1500,0.75,2.32652
1501,0.7505,2.33861
1502,0.751,2.33538
1503,0.7515,2.34183
1504,0.752,2.34183
1505,0.7525,2.33538
1506,0.753,2.31766
1507,0.7535,2.30557
1508,0.754,2.29832
1509,0.7545,2.283
1510,0.755,2.27817
1511,0.7555,2.2685
1512,0.756,2.26527
1513,0.7565,2.26689
1514,0.757,2.26447
1515,0.7575,2.26527
1516,0.758,2.24835
1517,0.7585,2.26689
1518,0.759,2.2685
1519,0.7595,2.28139
1520,0.76,2.29026
1521,0.7605,2.3096
1522,0.761,2.32169
1523,0.7615,2.337
1524,0.762,2.33136
1525,0.7625,2.32249
1526,0.763,2.32813
1527,0.7635,2.33136
1528,0.764,2.32733
1529,0.7645,2.32733
1530,0.765,2.31927
1531,0.7655,2.31363
1532,0.766,2.29993
1533,0.7665,2.29509
1534,0.767,2.28542
1535,0.7675,2.26044
1536,0.768,2.25077
1537,0.7685,2.2411
1538,0.769,2.24352
1539,0.7695,2.23546
1540,0.77,2.23062
1541,0.7705,2.23868
1542,0.771,2.24513
1543,0.7715,2.24271
1544,0.772,2.24593
1545,0.7725,2.25883
1546,0.773,2.27333
1547,0.7735,2.29026
1548,0.774,2.29348
1549,0.7745,2.30799
1550,0.775,2.31524
1551,0.7755,2.31282
1552,0.776,2.31604
1553,0.7765,2.3241
1554,0.777,2.32007
1555,0.7775,2.3096
1556,0.778,2.30154
1557,0.7785,2.29348
1558,0.779,2.28623
1559,0.7795,2.27736
1560,0.78,2.26447
1561,0.7805,2.2693
1562,0.781,2.24755
1563,0.7815,2.2411
1564,0.782,2.22579
1565,0.7825,2.2411
1566,0.783,2.24029
1567,0.7835,2.25722
1568,0.784,2.2556
1569,0.7845,2.25963
1570,0.785,2.283
1571,0.7855,2.2967
1572,0.786,2.31604
1573,0.7865,2.33538
1574,0.787,2.33538
1575,0.7875,2.34425
1576,0.788,2.34505
1577,0.7885,2.36037
1578,0.789,2.35473
1579,0.7895,2.36198
1580,0.79,2.36278
1581,0.7905,2.36359
1582,0.791,2.35392
1583,0.7915,2.36681
1584,0.792,2.37004
1585,0.7925,2.37487
1586,0.793,2.39099
1587,0.7935,2.40147
1588,0.794,2.40952
1589,0.7945,2.41436
1590,0.795,2.42242
1591,0.7955,2.42564
1592,0.796,2.45143
1593,0.7965,2.48205
1594,0.797,2.51348
1595,0.7975,2.5433
1596,0.798,2.59971
1597,0.7985,2.64886
1598,0.799,2.72139
1599,0.7995,2.7633
1600,0.8,2.79875
1601,0.8005,2.83744
1602,0.801,2.86
1603,0.8015,2.89223
1604,0.802,2.91963
1605,0.8025,2.96073
1606,0.803,3.00586
1607,0.8035,3.01231
1608,0.804,2.98894
1609,0.8045,2.99861
1610,0.805,2.99941
1611,0.8055,2.98249
1612,0.806,2.98168
1613,0.8065,2.98249
1614,0.807,2.99055
1615,0.8075,2.95348
1616,0.808,2.9567
1617,0.8085,2.96073
1618,0.809,2.94784
1619,0.8095,2.91883
1620,0.81,2.88901
1621,0.8105,2.85114
1622,0.811,2.80198
1623,0.8115,2.77377
1624,0.812,2.74234
1625,0.8125,2.75282
1626,0.813,2.75201
1627,0.8135,2.73509
1628,0.814,2.70689
1629,0.8145,2.6811
1630,0.815,2.64564
1631,0.8155,2.60615
1632,0.816,2.56505
1633,0.8165,2.55458
1634,0.817,2.52234
1635,0.8175,2.50703
1636,0.818,2.44095
1637,0.8185,2.39179
1638,0.819,2.3378
1639,0.8195,2.28381
1640,0.82,2.21289
1641,0.8205,2.13875
1642,0.821,2.1041
1643,0.8215,2.10491
1644,0.822,2.10813
1645,0.8225,2.0904
1646,0.823,2.09443
1647,0.8235,2.11861
1648,0.824,2.14278
1649,0.8245,2.16132
1650,0.825,2.18066
1651,0.8255,2.21048
1652,0.826,2.23143
1653,0.8265,2.26125
1654,0.827,2.2822
1655,0.8275,2.28703
1656,0.828,2.30879
1657,0.8285,2.30879
1658,0.829,2.30234
1659,0.8295,2.3104
1660,0.83,2.3104
1661,0.8305,2.30234
1662,0.831,2.29751
1663,0.8315,2.30879
1664,0.832,2.3104
1665,0.8325,2.31363
1666,0.833,2.32169
1667,0.8335,2.33136
1668,0.834,2.337
1669,0.8345,2.34586
1670,0.835,2.35473
1671,0.8355,2.36681
1672,0.836,2.37245
1673,0.8365,2.38132
1674,0.837,2.38293
1675,0.8375,2.38454
1676,0.838,2.38293
1677,0.8385,2.38051
1678,0.839,2.36359
1679,0.8395,2.37004
1680,0.84,2.37648
1681,0.8405,2.36601
1682,0.841,2.3644
1683,0.8415,2.34989
1684,0.842,2.33538
1685,0.8425,2.32974
1686,0.843,2.31524
1687,0.8435,2.31524
1688,0.844,2.29912
1689,0.8445,2.30315
1690,0.845,2.29509
1691,0.8455,2.29348
1692,0.846,2.28623
1693,0.8465,2.29026
1694,0.847,2.29429
1695,0.8475,2.30557
1696,0.848,2.31604
1697,0.8485,2.32249
1698,0.849,2.33297
1699,0.8495,2.34747
1700,0.85,2.34989
1701,0.8505,2.35473
1702,0.851,2.36359
1703,0.8515,2.36762
1704,0.852,2.37407
1705,0.8525,2.37648
1706,0.853,2.35553
1707,0.8535,2.36117
1708,0.854,2.35956
1709,0.8545,2.3507
1710,0.855,2.33216
1711,0.8555,2.32249
1712,0.856,2.31927
1713,0.8565,2.30557
1714,0.857,2.30718
1715,0.8575,2.30396
1716,0.858,2.29832
1717,0.8585,2.28623
1718,0.859,2.29912
1719,0.8595,2.29912
1720,0.86,2.30879
1721,0.8605,2.32571
1722,0.861,2.33458
1723,0.8615,2.3507
1724,0.862,2.35875
1725,0.8625,2.36359
1726,0.863,2.37165
1727,0.8635,2.37729
1728,0.864,2.37971
1729,0.8645,2.38132
1730,0.865,2.38051
1731,0.8655,2.38293
1732,0.866,2.38051
1733,0.8665,2.37084
1734,0.867,2.35473
1735,0.8675,2.35553
1736,0.868,2.33538
1737,0.8685,2.33458
1738,0.869,2.32733
1739,0.8695,2.32894
1740,0.87,2.32491
1741,0.8705,2.31201
1742,0.871,2.30718
1743,0.8715,2.31363
1744,0.872,2.32491
1745,0.8725,2.32894
1746,0.873,2.3378
1747,0.8735,2.35553
1748,0.874,2.36681
1749,0.8745,2.35714
1750,0.875,2.37326
1751,0.8755,2.37971
1752,0.876,2.39582
1753,0.8765,2.38777
1754,0.877,2.4063
1755,0.8775,2.38938
1756,0.878,2.38696
1757,0.8785,2.38454
1758,0.879,2.39341
1759,0.8795,2.38615
1760,0.88,2.38696
1761,0.8805,2.38051
1762,0.881,2.36762
1763,0.8815,2.35311
1764,0.882,2.33297
1765,0.8825,2.33458
1766,0.883,2.33055
1767,0.8835,2.3378
1768,0.884,2.34183
1769,0.8845,2.34022
1770,0.885,2.35311
1771,0.8855,2.36923
1772,0.886,2.3789
1773,0.8865,2.41033
1774,0.887,2.40872
1775,0.8875,2.40952
1776,0.888,2.43048
1777,0.8885,2.42322
1778,0.889,2.42725
1779,0.8895,2.43209
1780,0.89,2.42564
1781,0.8905,2.42081
1782,0.891,2.42322
1783,0.8915,2.41516
1784,0.892,2.40388
1785,0.8925,2.40388
1786,0.893,2.38615
1787,0.8935,2.37568
1788,0.894,2.36117
1789,0.8945,2.3507
1790,0.895,2.36198
1791,0.8955,2.36681
1792,0.896,2.35875
1793,0.8965,2.36117
1794,0.897,2.36359
1795,0.8975,2.38051
1796,0.898,2.39985
1797,0.8985,2.39985
1798,0.899,2.41194
1799,0.8995,2.42484
1800,0.9,2.42161
1801,0.9005,2.44015
1802,0.901,2.44015
1803,0.9015,2.43612
1804,0.902,2.43209
1805,0.9025,2.43612
1806,0.903,2.42484
1807,0.9035,2.42081
1808,0.904,2.41114
1809,0.9045,2.41033
1810,0.905,2.40227
1811,0.9055,2.39179
1812,0.906,2.3789
1813,0.9065,2.37487
1814,0.907,2.36842
1815,0.9075,2.37084
1816,0.908,2.37568
1817,0.9085,2.3789
1818,0.909,2.37487
1819,0.9095,2.42161
1820,0.91,2.44015
1821,0.9105,2.45385
1822,0.911,2.46352
1823,0.9115,2.46916
1824,0.912,2.48608
1825,0.9125,2.4893
1826,0.913,2.48366
1827,0.9135,2.48608
1828,0.914,2.4893
1829,0.9145,2.49897
1830,0.915,2.50784
1831,0.9155,2.50945
1832,0.916,2.49656
1833,0.9165,2.49011
1834,0.917,2.49011
1835,0.9175,2.47963
1836,0.918,2.48447
1837,0.9185,2.47238
1838,0.919,2.46029
1839,0.9195,2.45707
1840,0.92,2.4474
1841,0.9205,2.45626
1842,0.921,2.45868
1843,0.9215,2.4619
1844,0.922,2.47319
1845,0.9225,2.48044
1846,0.923,2.48608
1847,0.9235,2.49897
1848,0.924,2.51106
1849,0.9245,2.51187
1850,0.925,2.51832
1851,0.9255,2.5304
1852,0.926,2.53282
1853,0.9265,2.53363
1854,0.927,2.53685
1855,0.9275,2.53121
1856,0.928,2.53604
1857,0.9285,2.53443
1858,0.929,2.53121
1859,0.9295,2.52557
1860,0.93,2.51429
1861,0.9305,2.503
1862,0.931,2.50139
1863,0.9315,2.503
1864,0.932,2.48366
1865,0.9325,2.47802
1866,0.933,2.49092
1867,0.9335,2.4748
1868,0.934,2.48608
1869,0.9345,2.49253
1870,0.935,2.50542
1871,0.9355,2.5167
1872,0.936,2.53282
1873,0.9365,2.53524
1874,0.937,2.5441
1875,0.9375,2.54894
1876,0.938,2.55458
1877,0.9385,2.56103
1878,0.939,2.56989
1879,0.9395,2.57634
1880,0.94,2.57875
1881,0.9405,2.57875
1882,0.941,2.56425
1883,0.9415,2.56586
1884,0.942,2.5707
1885,0.9425,2.56344
1886,0.943,2.56586
1887,0.9435,2.55216
1888,0.944,2.5578
1889,0.9445,2.54169
1890,0.945,2.54652
1891,0.9455,2.53766
1892,0.946,2.53927
1893,0.9465,2.54974
1894,0.947,2.557
1895,0.9475,2.56989
1896,0.948,2.58923
1897,0.9485,2.60454
1898,0.949,2.61905
1899,0.9495,2.63436
1900,0.95,2.63194
1901,0.9505,2.64725
1902,0.951,2.64967
1903,0.9515,2.63436
1904,0.952,2.63919
1905,0.9525,2.64322
1906,0.953,2.62952
1907,0.9535,2.61663
1908,0.954,2.62549
1909,0.9545,2.61341
1910,0.955,2.61421
1911,0.9555,2.61179
1912,0.956,2.59648
1913,0.9565,2.58601
1914,0.957,2.58762
1915,0.9575,2.58923
1916,0.958,2.58359
1917,0.9585,2.58198
1918,0.959,2.57714
1919,0.9595,2.5852
1920,0.96,2.60454
1921,0.9605,2.60212
1922,0.961,2.61582
1923,0.9615,2.62711
1924,0.962,2.63919
1925,0.9625,2.66095
1926,0.963,2.66901
1927,0.9635,2.66498
1928,0.964,2.66498
1929,0.9645,2.67062
1930,0.965,2.67143
1931,0.9655,2.68271
1932,0.966,2.66015
1933,0.9665,2.6537
1934,0.967,2.64725
1935,0.9675,2.63839
1936,0.968,2.62549
1937,0.9685,2.61502
1938,0.969,2.60374
1939,0.9695,2.59245
1940,0.97,2.58762
1941,0.9705,2.5852
1942,0.971,2.58681
1943,0.9715,2.57392
1944,0.972,2.58198
1945,0.9725,2.57553
1946,0.973,2.58198
1947,0.9735,2.59245
1948,0.974,2.60374
1949,0.9745,2.61018
1950,0.975,2.61099
1951,0.9755,2.61663
1952,0.976,2.61905
1953,0.9765,2.61905
1954,0.977,2.62791
1955,0.9775,2.63516
1956,0.978,2.64322
1957,0.9785,2.64081
1958,0.979,2.62711
1959,0.9795,2.62711
1960,0.98,2.61824
1961,0.9805,2.59407
1962,0.981,2.58359
1963,0.9815,2.57553
1964,0.982,2.56425
1965,0.9825,2.55619
1966,0.983,2.55055
1967,0.9835,2.54169
1968,0.984,2.54733
1969,0.9845,2.55216
1970,0.985,2.55861
1971,0.9855,2.5441
1972,0.986,2.56183
1973,0.9865,2.56505
1974,0.987,2.55941
1975,0.9875,2.55861
1976,0.988,2.56344
1977,0.9885,2.56505
1978,0.989,2.55941
1979,0.9895,2.55538
1980,0.99,2.5578
1981,0.9905,2.54169
1982,0.991,2.53604
1983,0.9915,2.52073
1984,0.992,2.51187
1985,0.9925,2.503
1986,0.993,2.4885
1987,0.9935,2.45546
1988,0.994,2.44579
1989,0.9945,2.4337
1990,0.995,2.43451
1991,0.9955,2.41839
1992,0.996,2.41436
1993,0.9965,2.40872
1994,0.997,2.41114
1995,0.9975,2.42242
1996,0.998,2.41033
1997,0.9985,2.43048
1998,0.999,2.42161
1999,0.9995,2.43612
2000,1.0,2.43209
2001,1.0005,2.43773
2002,1.001,2.43773
2003,1.0015,2.42564
2004,1.002,2.43612
2005,1.0025,2.43209
2006,1.003,2.42725
2007,1.0035,2.41033
2008,1.004,2.40227
2009,1.0045,2.39099
2010,1.005,2.38535
2011,1.0055,2.36278
2012,1.006,2.35231
2013,1.0065,2.34183
2014,1.007,2.32733
2015,1.0075,2.32007
2016,1.008,2.3096
2017,1.0085,2.31604
2018,1.009,2.2967
2019,1.0095,2.30637
2020,1.01,2.29348
2021,1.0105,2.30315
2022,1.011,2.31766
2023,1.0115,2.3233
2024,1.012,2.33538
2025,1.0125,2.34667
2026,1.013,2.35231
2027,1.0135,2.36117
2028,1.014,2.3507
2029,1.0145,2.3515
2030,1.015,2.34989
2031,1.0155,2.3507
2032,1.016,2.33216
2033,1.0165,2.32169
2034,1.017,2.32491
2035,1.0175,2.30799
2036,1.018,2.30476
2037,1.0185,2.28784
2038,1.019,2.28542
2039,1.0195,2.27978
2040,1.02,2.27978
2041,1.0205,2.27656
2042,1.021,2.28059
2043,1.0215,2.28623
2044,1.022,2.28945
2045,1.0225,2.29751
2046,1.023,2.29751
2047,1.0235,2.29429
2048,1.024,2.30557
2049,1.0245,2.31201
2050,1.025,2.32169
2051,1.0255,2.32491
2052,1.026,2.33941
2053,1.0265,2.33216
2054,1.027,2.34667
2055,1.0275,2.34183
2056,1.028,2.34747
2057,1.0285,2.33619
2058,1.029,2.32088
2059,1.0295,2.3233
2060,1.03,2.31766
2061,1.0305,2.30315
2062,1.031,2.29026
2063,1.0315,2.28623
2064,1.032,2.28139
2065,1.0325,2.27736
2066,1.033,2.27575
2067,1.0335,2.27736
2068,1.034,2.26769
2069,1.0345,2.27736
2070,1.035,2.28381
2071,1.0355,2.29026
2072,1.036,2.30073
2073,1.0365,2.29187
2074,1.037,2.30476
2075,1.0375,2.30315
2076,1.038,2.30637
2077,1.0385,2.30557
2078,1.039,2.29751
2079,1.0395,2.30718
2080,1.04,2.30476
2081,1.0405,2.29993
2082,1.041,2.2967
2083,1.0415,2.28623
2084,1.042,2.28703
2085,1.0425,2.27656
2086,1.043,2.27656
2087,1.0435,2.26608
2088,1.044,2.27092
2089,1.0445,2.26286
2090,1.045,2.2548
2091,1.0455,2.26366
2092,1.046,2.26447
2093,1.0465,2.28623
2094,1.047,2.28381
2095,1.0475,2.29267
2096,1.048,2.29267
2097,1.0485,2.31201
2098,1.049,2.31201
2099,1.0495,2.32249
2100,1.05,2.33297
2101,1.0505,2.34264
2102,1.051,2.35956
2103,1.0515,2.34989
2104,1.052,2.36359
2105,1.0525,2.35714
2106,1.053,2.35795
2107,1.0535,2.35714
2108,1.054,2.34828
2109,1.0545,2.33538
2110,1.055,2.32813
2111,1.0555,2.31524
2112,1.056,2.30879
2113,1.0565,2.29187
2114,1.057,2.28623
2115,1.0575,2.27414
2116,1.058,2.2822
2117,1.0585,2.26527
2118,1.059,2.28864
2119,1.0595,2.283
2120,1.06,2.28784
2121,1.0605,2.28864
2122,1.061,2.30315
2123,1.0615,2.30073
2124,1.062,2.3241
2125,1.0625,2.33136
2126,1.063,2.34344
2127,1.0635,2.34989
2128,1.064,2.34586
2129,1.0645,2.3507
2130,1.065,2.34989
2131,1.0655,2.35473
2132,1.066,2.34747
2133,1.0665,2.34425
2134,1.067,2.29912
2135,1.0675,2.32894
2136,1.068,2.30879
2137,1.0685,2.30476
2138,1.069,2.2967
2139,1.0695,2.283
2140,1.07,2.26205
2141,1.0705,2.26689
2142,1.071,2.25399
2143,1.0715,2.2685
2144,1.072,2.27011
2145,1.0725,2.26689
2146,1.073,2.27333
2147,1.0735,2.29026
2148,1.074,2.29267
2149,1.0745,2.30396
2150,1.075,2.32249
2151,1.0755,2.32249
2152,1.076,2.34667
2153,1.0765,2.34425
2154,1.077,2.35634
2155,1.0775,2.35311
2156,1.078,2.34989
2157,1.0785,2.33941
2158,1.079,2.34425
2159,1.0795,2.34425
2160,1.08,2.32652
2161,1.0805,2.3241
2162,1.081,2.31846
2163,1.0815,2.30799
2164,1.082,2.30557
2165,1.0825,2.29912
2166,1.083,2.30637
2167,1.0835,2.29429
2168,1.084,2.30879
2169,1.0845,2.3104
2170,1.085,2.32169
2171,1.0855,2.31604
2172,1.086,2.32894
2173,1.0865,2.3378
2174,1.087,2.35875
2175,1.0875,2.35956
2176,1.088,2.36681
2177,1.0885,2.37648
2178,1.089,2.37648
2179,1.0895,2.38212
2180,1.09,2.37648
2181,1.0905,2.38051
2182,1.091,2.37407
2183,1.0915,2.36037
2184,1.092,2.36117
2185,1.0925,2.34022
2186,1.093,2.33136
2187,1.0935,2.32894
2188,1.094,2.31524
2189,1.0945,2.30315
2190,1.095,2.29429
2191,1.0955,2.29993
2192,1.096,2.28784
2193,1.0965,2.28784
2194,1.097,2.28623
2195,1.0975,2.29912
2196,1.098,2.2959
2197,1.0985,2.2959
2198,1.099,2.31282
2199,1.0995,2.31201
2200,1.1,2.33861
2201,1.1005,2.34183
2202,1.101,2.35473
2203,1.1015,2.36198
2204,1.102,2.36117
2205,1.1025,2.37084
2206,1.103,2.37084
2207,1.1035,2.37245
2208,1.104,2.36923
2209,1.1045,2.3652
2210,1.105,2.35553
2211,1.1055,2.34425
2212,1.106,2.33538
2213,1.1065,2.33216
2214,1.107,2.32169
2215,1.1075,2.31201
2216,1.108,2.29912
2217,1.1085,2.30073
2218,1.109,2.29267
2219,1.1095,2.2959
2220,1.11,2.30557
2221,1.1105,2.3096
2222,1.111,2.3233
2223,1.1115,2.33619
2224,1.112,2.34828
2225,1.1125,2.35956
2226,1.113,2.35875
2227,1.1135,2.3644
2228,1.114,2.37487
2229,1.1145,2.37568
2230,1.115,2.38051
2231,1.1155,2.36359
2232,1.116,2.37407
2233,1.1165,2.36762
2234,1.117,2.36762
2235,1.1175,2.3507
2236,1.118,2.34667
2237,1.1185,2.33538
2238,1.119,2.3241
2239,1.1195,2.33216
2240,1.12,2.32652
2241,1.1205,2.3233
2242,1.121,2.31524
2243,1.1215,2.31201
2244,1.122,2.32491
2245,1.1225,2.31282
2246,1.123,2.32894
2247,1.1235,2.33941
2248,1.124,2.34747
2249,1.1245,2.34828
2250,1.125,2.35956
2251,1.1255,2.37648
2252,1.126,2.3781
2253,1.1265,2.39018
2254,1.127,2.38535
2255,1.1275,2.38777
2256,1.128,2.39341
2257,1.1285,2.38374
2258,1.129,2.38051
2259,1.1295,2.37326
2260,1.13,2.36359
2261,1.1305,2.35634
2262,1.131,2.34344
2263,1.1315,2.33136
2264,1.132,2.3233
2265,1.1325,2.31363
2266,1.133,2.3096
2267,1.1335,2.29912
2268,1.134,2.30557
2269,1.1345,2.29509
2270,1.135,2.30396
2271,1.1355,2.31201
2272,1.136,2.32249
2273,1.1365,2.337
2274,1.137,2.33538
2275,1.1375,2.337
2276,1.138,2.35795
2277,1.1385,2.36037
2278,1.139,2.35956
2279,1.1395,2.36601
2280,1.14,2.37326
2281,1.1405,2.36601
2282,1.141,2.37971
2283,1.1415,2.37245
2284,1.142,2.35714
2285,1.1425,2.35714
2286,1.143,2.34586
2287,1.1435,2.33941
2288,1.144,2.32974
2289,1.1445,2.32974
2290,1.145,2.31201
2291,1.1455,2.30315
2292,1.146,2.30234
2293,1.1465,2.30315
2294,1.147,2.30234
2295,1.1475,2.30879
2296,1.148,2.31363
2297,1.1485,2.32007
2298,1.149,2.33297
2299,1.1495,2.3378
2300,1.15,2.35634
2301,1.1505,2.36681
2302,1.151,2.38777
2303,1.1515,2.38615
2304,1.152,2.38615
2305,1.1525,2.38857
2306,1.153,2.38938
2307,1.1535,2.40549
2308,1.154,2.39582
2309,1.1545,2.38535
2310,1.155,2.37407
2311,1.1555,2.36762
2312,1.156,2.36278
2313,1.1565,2.35392
2314,1.157,2.3507
2315,1.1575,2.34425
2316,1.158,2.33216
2317,1.1585,2.33297
2318,1.159,2.33297
2319,1.1595,2.33458
2320,1.16,2.34103
2321,1.1605,2.3507
2322,1.161,2.3507
2323,1.1615,2.3789
2324,1.162,2.39179
2325,1.1625,2.4063
2326,1.163,2.39824
2327,1.1635,2.39985
2328,1.164,2.40872
2329,1.1645,2.4063
2330,1.165,2.40711
2331,1.1655,2.40872
2332,1.166,2.40227
2333,1.1665,2.4063
2334,1.167,2.39663
2335,1.1675,2.38293
2336,1.168,2.38051
2337,1.1685,2.35956
2338,1.169,2.34828
2339,1.1695,2.32894
2340,1.17,2.32894
2341,1.1705,2.32169
2342,1.171,2.31604
2343,1.1715,2.32088
2344,1.172,2.3104
2345,1.1725,2.34022
2346,1.173,2.34344
2347,1.1735,2.36681
2348,1.174,2.37245
2349,1.1745,2.38293
2350,1.175,2.4063
2351,1.1755,2.41516
2352,1.176,2.42242
2353,1.1765,2.41194
2354,1.177,2.42161
2355,1.1775,2.43612
2356,1.178,2.44337
2357,1.1785,2.43934
2358,1.179,2.43692
2359,1.1795,2.42806
2360,1.18,2.42645
2361,1.1805,2.41436
2362,1.181,2.39744
2363,1.1815,2.3926
2364,1.182,2.38374
2365,1.1825,2.37407
2366,1.183,2.36762
2367,1.1835,2.36198
2368,1.184,2.36037
2369,1.1845,2.35875
2370,1.185,2.35473
2371,1.1855,2.36762
2372,1.186,2.36198
2373,1.1865,2.37165
2374,1.187,2.3789
2375,1.1875,2.38696
2376,1.188,2.40147
2377,1.1885,2.41839
2378,1.189,2.42081
2379,1.1895,2.42322
2380,1.19,2.44176
2381,1.1905,2.44095
2382,1.191,2.43531
2383,1.1915,2.43209
2384,1.192,2.43289
2385,1.1925,2.42806
2386,1.193,2.41275
2387,1.1935,2.40227
2388,1.194,2.39985
2389,1.1945,2.38857
2390,1.195,2.39502
2391,1.1955,2.38777
2392,1.196,2.38454
2393,1.1965,2.37971
2394,1.197,2.38615
2395,1.1975,2.38696
2396,1.198,2.39341
2397,1.1985,2.38938
2398,1.199,2.39099
2399,1.1995,2.41033
2400,1.2,2.41919
2401,1.2005,2.42725
2402,1.201,2.42322
2403,1.2015,2.42725
2404,1.202,2.42161
2405,1.2025,2.42725
2406,1.203,2.41033
2407,1.2035,2.40227
2408,1.204,2.40066
2409,1.2045,2.40066
2410,1.205,2.3926
2411,1.2055,2.37648
2412,1.206,2.36359
2413,1.2065,2.34908
2414,1.207,2.337
2415,1.2075,2.31927
2416,1.208,2.32894
2417,1.2085,2.31846
2418,1.209,2.31927
2419,1.2095,2.32894
2420,1.21,2.32652
2421,1.2105,2.34586
2422,1.211,2.3507
2423,1.2115,2.3507
2424,1.212,2.36359
2425,1.2125,2.38051
2426,1.213,2.38132
2427,1.2135,2.39341
2428,1.214,2.39663
2429,1.2145,2.39341
2430,1.215,2.40711
2431,1.2155,2.40308
2432,1.216,2.41033
2433,1.2165,2.39502
2434,1.217,2.39099
2435,1.2175,2.39421
2436,1.218,2.38051
2437,1.2185,2.36117
2438,1.219,2.35714
2439,1.2195,2.34183
2440,1.22,2.34183
2441,1.2205,2.33458
2442,1.221,2.32088
2443,1.2215,2.32813
2444,1.222,2.32169
2445,1.2225,2.32733
2446,1.223,2.34183
2447,1.2235,2.35392
2448,1.224,2.3507
2449,1.2245,2.3644
2450,1.225,2.39099
2451,1.2255,2.38696
2452,1.226,2.40147
2453,1.2265,2.40791
2454,1.227,2.42161
2455,1.2275,2.41597
2456,1.228,2.41194
2457,1.2285,2.41516
2458,1.229,2.41516
2459,1.2295,2.39099
2460,1.23,2.38374
2461,1.2305,2.38051
2462,1.231,2.37407
2463,1.2315,2.3644
2464,1.232,2.37004
2465,1.2325,2.3507
2466,1.233,2.35473
2467,1.2335,2.35392
2468,1.234,2.34505
2469,1.2345,2.3378
2470,1.235,2.3378
2471,1.2355,2.33458
2472,1.236,2.34505
2473,1.2365,2.34828
2474,1.237,2.35473
2475,1.2375,2.36601
2476,1.238,2.37568
2477,1.2385,2.39905
2478,1.239,2.39502
2479,1.2395,2.40469
2480,1.24,2.40147
2481,1.2405,2.40549
2482,1.241,2.41516
2483,1.2415,2.41194
2484,1.242,2.40711
2485,1.2425,2.39421
2486,1.243,2.37648
2487,1.2435,2.38615
2488,1.244,2.37407
2489,1.2445,2.36681
2490,1.245,2.35473
2491,1.2455,2.33297
2492,1.246,2.33216
2493,1.2465,2.33216
2494,1.247,1.9937
2495,1.2475,2.33136
2496,1.248,2.33861
2497,1.2485,2.34667
2498,1.249,2.3507
2499,1.2495,2.35714
2500,1.25,2.3644
2501,1.2505,2.37648
2502,1.251,2.38535
2503,1.2515,2.38696
2504,1.252,2.39582
2505,1.2525,2.38938
2506,1.253,2.39502
2507,1.2535,2.39018
2508,1.254,2.38051
2509,1.2545,2.38938
2510,1.255,2.38293
2511,1.2555,2.3789
2512,1.256,2.3781
2513,1.2565,2.37326
2514,1.257,2.36601
2515,1.2575,2.36359
2516,1.258,2.34828
2517,1.2585,2.34667
2518,1.259,2.33216
2519,1.2595,2.33297
2520,1.26,2.32894
2521,1.2605,2.33619
2522,1.261,2.3507
2523,1.2615,2.34747
2524,1.262,2.35714
2525,1.2625,2.36842
2526,1.263,2.3926
2527,1.2635,2.41194
2528,1.264,2.41516
2529,1.2645,2.4063
2530,1.265,2.42081
2531,1.2655,2.42403
2532,1.266,2.43531
2533,1.2665,2.44095
2534,1.267,2.44821
2535,1.2675,2.4474
2536,1.268,2.43853
2537,1.2685,2.43451
2538,1.269,2.42967
2539,1.2695,2.42886
2540,1.27,2.43692
2541,1.2705,2.43128
2542,1.271,2.44176
2543,1.2715,2.4611
2544,1.272,2.4748
2545,1.2725,2.48689
2546,1.273,2.51267
2547,1.2735,2.54169
2548,1.274,2.55861
2549,1.2745,2.57392
2550,1.275,2.60938
2551,1.2755,2.63839
2552,1.276,2.6956
2553,1.2765,2.74799
2554,1.277,2.78989
2555,1.2775,2.83744
2556,1.278,2.87692
2557,1.2785,2.91802
2558,1.279,2.92769
2559,1.2795,2.95429
2560,1.28,2.98249
2561,1.2805,3.0107
2562,1.281,3.03084
2563,1.2815,3.0663
2564,1.282,3.06872
2565,1.2825,3.06388
2566,1.283,3.07275
2567,1.2835,3.06872
2568,1.284,3.07275
2569,1.2845,3.09209
2570,1.285,3.09934
2571,1.2855,3.07275
2572,1.286,3.07194
2573,1.2865,3.05663
2574,1.287,3.04535
2575,1.2875,3.04535
2576,1.288,3.05582
2577,1.2885,3.00989
2578,1.289,2.9696
2579,1.2895,2.91963
2580,1.29,2.86886
2581,1.2905,2.86161
2582,1.291,2.84952
2583,1.2915,2.84066
2584,1.292,2.82132
2585,1.2925,2.78586
2586,1.293,2.74476
2587,1.2935,2.70044
2588,1.294,2.67707
2589,1.2945,2.64161
2590,1.295,2.64081
2591,1.2955,2.61582
2592,1.296,2.58278
2593,1.2965,2.53927
2594,1.297,2.49414
2595,1.2975,2.4619
2596,1.298,2.42806
2597,1.2985,2.35714
2598,1.299,2.30637
2599,1.2995,2.29267
2600,1.3,2.27011
2601,1.3005,2.26044
2602,1.301,2.25158
2603,1.3015,2.2556
2604,1.302,2.26689
2605,1.3025,2.28623
2606,1.303,2.30799
2607,1.3035,2.33216
2608,1.304,2.35634
2609,1.3045,2.36923
2610,1.305,2.38938
2611,1.3055,2.39744
2612,1.306,2.41114
2613,1.3065,2.42161
2614,1.307,2.43209
2615,1.3075,2.44095
2616,1.308,2.44337
2617,1.3085,2.44256
2618,1.309,2.45143
2619,1.3095,2.45385
2620,1.31,2.4611
2621,1.3105,2.49011
2622,1.311,2.4893
2623,1.3115,2.49656
2624,1.312,2.50462
2625,1.3125,2.50945
2626,1.313,2.52396
2627,1.3135,2.52234
2628,1.314,2.51509
2629,1.3145,2.50623
2630,1.315,2.503
2631,1.3155,2.49575
2632,1.316,2.47399
2633,1.3165,2.47641
2634,1.317,2.47319
2635,1.3175,2.47963
2636,1.318,2.46029
2637,1.3185,2.44498
2638,1.319,2.44337
2639,1.3195,2.42564
2640,1.32,2.42403
2641,1.3205,2.41758
2642,1.321,2.40791
2643,1.3215,2.40227
2644,1.322,2.40388
2645,1.3225,2.41194
2646,1.323,2.41516
2647,1.3235,2.43048
2648,1.324,2.43048
2649,1.3245,2.42806
2650,1.325,2.44095
2651,1.3255,2.45223
2652,1.326,2.46916
2653,1.3265,2.46674
2654,1.327,2.47077
2655,1.3275,2.47963
2656,1.328,2.48286
2657,1.3285,2.4893
2658,1.329,2.48447
2659,1.3295,2.47963
2660,1.33,2.47319
2661,1.3305,2.47802
2662,1.331,2.46352
2663,1.3315,2.46271
2664,1.332,2.45385
2665,1.3325,2.45707
2666,1.333,2.45304
2667,1.3335,2.43853
2668,1.334,2.43289
2669,1.3345,2.44095
2670,1.335,2.44418
2671,1.3355,2.43612
2672,1.336,2.4619
2673,1.3365,2.46674
2674,1.337,2.48044
2675,1.3375,2.48608
2676,1.338,2.49656
2677,1.3385,2.503
2678,1.339,2.50703
2679,1.3395,2.52476
2680,1.34,2.52879
2681,1.3405,2.53121
2682,1.341,2.5304
2683,1.3415,2.52234
2684,1.342,2.51509
2685,1.3425,2.51832
2686,1.343,2.50059
2687,1.3435,2.49495
2688,1.344,2.47883
2689,1.3445,2.48205
2690,1.345,2.4619
2691,1.3455,2.45788
2692,1.346,2.45788
2693,1.3465,2.44982
2694,1.347,2.44498
2695,1.3475,2.4474
2696,1.348,2.44982
2697,1.3485,2.4756
2698,1.349,2.47963
2699,1.3495,2.48125
2700,1.35,2.48608
2701,1.3505,2.49495
2702,1.351,2.5022
2703,1.3515,2.49575
2704,1.352,2.50059
2705,1.3525,2.50784
2706,1.353,2.50945
2707,1.3535,2.5022
2708,1.354,2.50623
2709,1.3545,2.49495
2710,1.355,2.48366
2711,1.3555,2.44901
2712,1.356,2.4748
2713,1.3565,2.4611
2714,1.357,2.45385
2715,1.3575,2.45385
2716,1.358,2.45707
2717,1.3585,2.46674
2718,1.359,2.47238
2719,1.3595,2.46916
2720,1.36,2.47077
2721,1.3605,2.49092
2722,1.361,2.48447
2723,1.3615,2.50139
2724,1.362,2.50945
2725,1.3625,2.51509
2726,1.363,2.52476
2727,1.3635,2.54249
2728,1.364,2.56103
2729,1.3645,2.56505
2730,1.365,2.57231
2731,1.3655,2.57311
2732,1.366,2.57634
2733,1.3665,2.56425
2734,1.367,2.557
2735,1.3675,2.54169
2736,1.368,2.53685
2737,1.3685,2.51993
2738,1.369,2.52073
2739,1.3695,2.51832
2740,1.37,2.51832
2741,1.3705,2.5167
2742,1.371,2.51832
2743,1.3715,2.50139
2744,1.372,2.50139
2745,1.3725,2.48447
2746,1.373,2.4885
2747,1.3735,2.49656
2748,1.374,2.50542
2749,1.3745,2.51026
2750,1.375,2.52718
2751,1.3755,2.55216
2752,1.376,2.5578
2753,1.3765,2.56022
2754,1.377,2.57311
2755,1.3775,2.57473
2756,1.378,2.5715
2757,1.3785,2.57311
2758,1.379,2.57392
2759,1.3795,2.56425
2760,1.38,2.56505
2761,1.3805,2.56828
2762,1.381,2.56103
2763,1.3815,2.55136
2764,1.382,2.54007
2765,1.3825,2.53846
2766,1.383,2.52557
2767,1.3835,2.52637
2768,1.384,2.52557
2769,1.3845,2.52637
2770,1.385,2.53121
2771,1.3855,2.51912
2772,1.386,2.52476
2773,1.3865,2.53363
2774,1.387,2.54733
2775,1.3875,2.56022
2776,1.388,2.55216
2777,1.3885,2.55861
2778,1.389,2.58681
2779,1.3895,2.59165
2780,1.39,2.5989
2781,1.3905,2.60857
2782,1.391,2.61099
2783,1.3915,2.60051
2784,1.392,2.60857
2785,1.3925,2.61179
2786,1.393,2.59568
2787,1.3935,2.58601
2788,1.394,2.57634
2789,1.3945,2.56908
2790,1.395,2.55538
2791,1.3955,2.56747
2792,1.396,2.56425
2793,1.3965,2.56103
2794,1.397,2.55861
2795,1.3975,2.55941
2796,1.398,2.57311
2797,1.3985,2.57553
2798,1.399,2.59326
2799,1.3995,2.59729
2800,1.4,2.6126
2801,1.4005,2.63839
2802,1.401,2.64484
2803,1.4015,2.66256
2804,1.402,2.67707
2805,1.4025,2.67062
2806,1.403,2.68352
2807,1.4035,2.68029
2808,1.404,2.68674
2809,1.4045,2.67788
2810,1.405,2.6811
2811,1.4055,2.68432
2812,1.406,2.67304
2813,1.4065,2.66498
2814,1.407,2.64242
2815,1.4075,2.64967
2816,1.408,2.64484
2817,1.4085,2.62952
2818,1.409,2.63597
2819,1.4095,2.62388
2820,1.41,2.96396
2821,1.4105,2.63033
2822,1.411,2.64484
2823,1.4115,2.64484
2824,1.412,2.65531
2825,1.4125,2.66498
2826,1.413,2.6811
2827,1.4135,2.69319
2828,1.414,2.69641
2829,1.4145,2.70125
2830,1.415,2.7093
2831,1.4155,2.71656
2832,1.416,2.72462
2833,1.4165,2.73267
2834,1.417,2.73751
2835,1.4175,2.72864
2836,1.418,2.72462
2837,1.4185,2.71575
2838,1.419,2.7085
2839,1.4195,2.7093
2840,1.42,2.69641
2841,1.4205,2.68674
2842,1.421,2.68513
2843,1.4215,2.67949
2844,1.422,2.67385
2845,1.4225,2.67868
2846,1.423,2.68916
2847,1.4235,2.69238
2848,1.424,2.69399
2849,1.4245,2.68352
2850,1.425,2.72462
2851,1.4255,2.73993
2852,1.426,2.75927
2853,1.4265,2.76974
2854,1.427,2.76571
2855,1.4275,2.77941
2856,1.428,2.77619
2857,1.4285,2.77619
2858,1.429,2.77377
2859,1.4295,2.77538
2860,1.43,2.78022
2861,1.4305,2.76007
2862,1.431,2.76571
2863,1.4315,2.74073
2864,1.432,2.72864
2865,1.4325,2.7367
2866,1.433,2.73509
2867,1.4335,2.72462
2868,1.434,2.72381
2869,1.4345,2.70447
2870,1.435,2.72139
2871,1.4355,2.71656
2872,1.436,2.71978
2873,1.4365,2.73348
2874,1.437,2.74396
2875,1.4375,2.76974
2876,1.438,2.78103
2877,1.4385,2.79875
2878,1.439,2.80198
2879,1.4395,2.80198
2880,1.44,2.80601
2881,1.4405,2.80198
2882,1.441,2.80842
2883,1.4415,2.8189
2884,1.442,2.80601
2885,1.4425,2.81004
2886,1.443,2.79956
2887,1.4435,2.7915
2888,1.444,2.777
2889,1.4445,2.77297
2890,1.445,2.77619
2891,1.4455,2.76733
2892,1.446,2.76007
2893,1.4465,2.75685
2894,1.447,2.75927
2895,1.4475,2.7641
2896,1.448,2.75443
2897,1.4485,2.75282
2898,1.449,2.75685
2899,1.4495,2.76733
2900,1.45,2.75846
2901,1.4505,2.76733
2902,1.451,2.77538
2903,1.4515,2.78425
2904,1.452,2.78667
2905,1.4525,2.79231
2906,1.453,2.77377
2907,1.4535,2.77941
2908,1.454,2.7915
2909,1.4545,2.76974
2910,1.455,2.76974
2911,1.4555,2.77619
2912,1.456,2.75766
2913,1.4565,2.74799
2914,1.457,2.73106
2915,1.4575,2.71575
2916,1.458,2.72139
2917,1.4585,2.71897
2918,1.459,2.7093
2919,1.4595,2.69883
2920,1.46,2.70527
2921,1.4605,2.70286
2922,1.461,2.70769
2923,1.4615,2.71414
2924,1.462,2.70608
2925,1.4625,2.71575
2926,1.463,2.70769
2927,1.4635,2.71092
2928,1.464,2.71253
2929,1.4645,2.7093
2930,1.465,2.69399
2931,1.4655,2.70044
2932,1.466,2.68916
2933,1.4665,2.68271
2934,1.467,2.67949
2935,1.4675,2.67304
2936,1.468,2.68029
2937,1.4685,2.67223
2938,1.469,2.65612
2939,1.4695,2.64484
2940,1.47,2.63194
2941,1.4705,2.6263
2942,1.471,2.60615
2943,1.4715,2.61018
2944,1.472,2.60857
2945,1.4725,2.59971
2946,1.473,2.61018
2947,1.4735,2.62388
2948,1.474,2.63033
2949,1.4745,2.6263
2950,1.475,2.63436
2951,1.4755,2.63839
2952,1.476,2.63839
2953,1.4765,2.63436
2954,1.477,2.63919
2955,1.4775,2.63516
2956,1.478,2.63839
2957,1.4785,2.64081
2958,1.479,2.61744
2959,1.4795,2.60374
2960,1.48,2.58762
2961,1.4805,2.58037
2962,1.481,2.56103
2963,1.4815,2.54733
2964,1.482,2.53604
2965,1.4825,2.52234
2966,1.483,2.50784
2967,1.4835,2.49011
2968,1.484,2.48447
2969,1.4845,2.46674
2970,1.485,2.45868
2971,1.4855,2.45385
2972,1.486,2.4611
2973,1.4865,2.45788
2974,1.487,2.4893
2975,1.4875,2.48286
2976,1.488,2.4885
2977,1.4885,2.48608
2978,1.489,2.49897
2979,1.4895,2.49897
2980,1.49,2.49897
2981,1.4905,2.503
2982,1.491,2.50864
2983,1.4915,2.51348
2984,1.492,2.50059
2985,1.4925,2.50784
2986,1.493,2.50059
2987,1.4935,2.49575
2988,1.494,2.47722
2989,1.4945,2.46513
2990,1.495,2.45385
2991,1.4955,2.44418
2992,1.496,2.43209
2993,1.4965,2.42967
2994,1.497,2.43451
2995,1.4975,2.43128
2996,1.498,2.43773
2997,1.4985,2.43048
2998,1.499,2.43128
2999,1.4995,2.43289
3000,1.5,2.42564
3001,1.5005,2.42242
3002,1.501,2.42886
3003,1.5015,2.44337
3004,1.502,2.44095
3005,1.5025,2.4474
3006,1.503,2.45626
3007,1.5035,2.46593
3008,1.504,2.4756
3009,1.5045,2.46513
3010,1.505,2.4611
3011,1.5055,2.45385
3012,1.506,2.45143
3013,1.5065,2.45304
3014,1.507,2.44659
3015,1.5075,2.46029
3016,1.508,2.45788
3017,1.5085,2.4474
3018,1.509,2.43289
3019,1.5095,2.42806
3020,1.51,2.43048
3021,1.5105,2.42725
3022,1.511,2.42161
3023,1.5115,2.42564
3024,1.512,2.44095
3025,1.5125,2.44821
3026,1.513,2.45949
3027,1.5135,2.47238
3028,1.514,2.47722
3029,1.5145,2.47883
3030,1.515,2.47238
3031,1.5155,2.48366
3032,1.516,2.47399
3033,1.5165,2.47077
3034,1.517,2.45788
3035,1.5175,2.4474
3036,1.518,2.43773
3037,1.5185,2.42806
3038,1.519,2.41275
3039,1.5195,2.39985
3040,1.52,2.39099
3041,1.5205,2.38454
3042,1.521,2.38535
3043,1.5215,2.39985
3044,1.522,2.39582
3045,1.5225,2.39744
3046,1.523,2.39341
3047,1.5235,2.40227
3048,1.524,2.41839
3049,1.5245,2.42886
3050,1.525,2.44015
3051,1.5255,2.45788
3052,1.526,2.45788
3053,1.5265,2.4756
3054,1.527,2.47077
3055,1.5275,2.47722
3056,1.528,2.46271
3057,1.5285,2.46755
3058,1.529,2.4619
3059,1.5295,2.45707
3060,1.53,2.4619
3061,1.5305,2.44901
3062,1.531,2.43612
3063,1.5315,2.44095
3064,1.532,2.42564
3065,1.5325,2.43289
3066,1.533,2.43128
3067,1.5335,2.43451
3068,1.534,2.42161
3069,1.5345,2.42242
3070,1.535,2.42484
3071,1.5355,2.42
3072,1.536,2.43128
3073,1.5365,2.41194
3074,1.537,2.42161
3075,1.5375,2.42564
3076,1.538,2.43128
3077,1.5385,2.44095
3078,1.539,2.46674
3079,1.5395,2.45465
3080,1.54,2.45304
3081,1.5405,2.47077
3082,1.541,2.46835
3083,1.5415,2.47399
3084,1.542,2.47077
3085,1.5425,2.47319
3086,1.543,2.45304
3087,1.5435,2.45465
3088,1.544,2.4619
3089,1.5445,2.45385
3090,1.545,2.45788
3091,1.5455,2.44095
3092,1.546,2.4474
3093,1.5465,2.45304
3094,1.547,2.4474
3095,1.5475,2.44498
3096,1.548,2.45062
3097,1.5485,2.45788
3098,1.549,2.44982
3099,1.5495,2.45707
3100,1.55,2.46029
3101,1.5505,2.46593
3102,1.551,2.4748
3103,1.5515,2.49656
3104,1.552,2.49978
3105,1.5525,2.4893
3106,1.553,2.49092
3107,1.5535,2.50139
3108,1.554,2.48769
3109,1.5545,2.49333
3110,1.555,2.49333
3111,1.5555,2.49011
3112,1.556,2.48447
3113,1.5565,2.48447
3114,1.557,2.46352
3115,1.5575,2.46674
3116,1.558,2.44901
3117,1.5585,2.43531
3118,1.559,2.42967
3119,1.5595,2.42725
3120,1.56,2.42806
3121,1.5605,2.43209
3122,1.561,2.43934
3123,1.5615,2.45143
3124,1.562,2.46432
3125,1.5625,2.46432
3126,1.563,2.49172
3127,1.5635,2.49414
3128,1.564,2.51267
3129,1.5645,2.503
3130,1.565,2.51187
3131,1.5655,2.50623
3132,1.566,2.50623
3133,1.5665,2.50864
3134,1.567,2.49897
3135,1.5675,2.48447
3136,1.568,2.47963
3137,1.5685,2.46513
3138,1.569,2.45626
3139,1.5695,2.45546
3140,1.57,2.44982
3141,1.5705,2.4474
3142,1.571,2.44982
3143,1.5715,2.43289
3144,1.572,2.43853
3145,1.5725,2.43209
3146,1.573,2.43209
3147,1.5735,2.43209
3148,1.574,2.43773
3149,1.5745,2.4474
3150,1.575,2.45304
3151,1.5755,2.46432
3152,1.576,2.46755
3153,1.5765,2.4611
3154,1.577,2.47319
3155,1.5775,2.46674
3156,1.578,2.4619
3157,1.5785,2.45707
3158,1.579,2.45868
3159,1.5795,2.45788
3160,1.58,2.45223
3161,1.5805,2.45868
3162,1.581,2.45707
3163,1.5815,2.4474
3164,1.582,2.44256
3165,1.5825,2.46271
3166,1.583,2.46674
3167,1.5835,2.4756
3168,1.584,2.4756
3169,1.5845,2.4893
3170,1.585,2.49656
3171,1.5855,2.51026
3172,1.586,2.52396
3173,1.5865,2.53524
3174,1.587,2.54652
3175,1.5875,2.56667
3176,1.588,2.55216
3177,1.5885,2.557
3178,1.589,2.56667
3179,1.5895,2.5578
3180,1.59,2.55861
3181,1.5905,2.55619
3182,1.591,2.55861
3183,1.5915,2.55458
3184,1.592,2.55136
3185,1.5925,2.5441
3186,1.593,2.55458
3187,1.5935,2.54652
3188,1.594,2.56022
3189,1.5945,2.57714
3190,1.595,2.58681
3191,1.5955,2.59245
3192,1.596,2.59568
3193,1.5965,2.60132
3194,1.597,2.59729
3195,1.5975,2.59004
3196,1.598,2.58278
3197,1.5985,2.5844
3198,1.599,2.57473
3199,1.5995,2.58037
3200,1.6,2.56022
3201,1.6005,2.53766
3202,1.601,2.557
3203,1.6015,2.55458
3204,1.602,2.55055
3205,1.6025,2.53524
3206,1.603,2.49897
3207,1.6035,2.48689
3208,1.604,2.46674
3209,1.6045,2.44095
3210,1.605,2.42484
3211,1.6055,2.41919
3212,1.606,2.41275
3213,1.6065,2.38696
3214,1.607,2.38132
3215,1.6075,2.38696
3216,1.608,2.38374
3217,1.6085,2.38293
3218,1.609,2.37004
3219,1.6095,2.3652
3220,1.61,2.36762
3221,1.6105,2.36278
3222,1.611,2.36359
3223,1.6115,2.36681
3224,1.612,2.36923
3225,1.6125,2.37326
3226,1.613,2.3789
3227,1.6135,2.39663
3228,1.614,2.38132
3229,1.6145,2.40147
3230,1.615,2.41758
3231,1.6155,2.42242
3232,1.616,2.42242
3233,1.6165,2.41033
3234,1.617,2.40227
3235,1.6175,2.39663
3236,1.618,2.37568
3237,1.6185,2.37487
3238,1.619,2.35795
3239,1.6195,2.34586
3240,1.62,2.34586
3241,1.6205,2.34667
3242,1.621,2.3378
3243,1.6215,2.36842
3244,1.622,2.3789
3245,1.6225,2.37568
3246,1.623,2.36762
3247,1.6235,2.38051
3248,1.624,2.38696
3249,1.6245,2.40227
3250,1.625,2.4063
3251,1.6255,2.41516
3252,1.626,2.42806
3253,1.6265,2.43612
3254,1.627,2.44498
3255,1.6275,2.45626
3256,1.628,2.47077
3257,1.6285,2.4748
3258,1.629,2.46835
3259,1.6295,2.47077
3260,1.63,2.47722
3261,1.6305,2.47158
3262,1.631,2.47077
3263,1.6315,2.47399
3264,1.632,2.46916
3265,1.6325,2.46029
3266,1.633,2.45707
3267,1.6335,2.44982
3268,1.634,2.43209
3269,1.6345,2.42806
3270,1.635,2.44095
3271,1.6355,2.43209
3272,1.636,2.43853
3273,1.6365,2.44579
3274,1.637,2.44901
3275,1.6375,2.46513
3276,1.638,2.47399
3277,1.6385,2.47963
3278,1.639,2.48366
3279,1.6395,2.49575
3280,1.64,2.48044
3281,1.6405,2.47883
3282,1.641,2.48205
3283,1.6415,2.47883
3284,1.642,2.48366
3285,1.6425,2.46996
3286,1.643,2.47319
3287,1.6435,2.46513
3288,1.644,2.47722
3289,1.6445,2.46835
3290,1.645,2.47077
3291,1.6455,2.47319
3292,1.646,2.45143
3293,1.6465,2.4474
3294,1.647,2.45788
3295,1.6475,2.48447
3296,1.648,2.49253
3297,1.6485,2.50623
3298,1.649,2.50703
3299,1.6495,2.51832
3300,1.65,2.52234
3301,1.6505,2.52718
3302,1.651,2.53121
3303,1.6515,2.52879
3304,1.652,2.51912
3305,1.6525,2.53201
3306,1.653,2.52476
3307,1.6535,2.5159
3308,1.654,2.503
3309,1.6545,2.48366
3310,1.655,2.46674
3311,1.6555,2.45465
3312,1.656,2.44821
3313,1.6565,2.44256
3314,1.657,2.45465
3315,1.6575,2.44579
3316,1.658,2.44256
3317,1.6585,2.44337
3318,1.659,2.44256
3319,1.6595,2.46513
3320,1.66,2.48447
3321,1.6605,2.49253
3322,1.661,2.503
3323,1.6615,2.52476
3324,1.662,2.54249
3325,1.6625,2.57392
3326,1.663,2.58198
3327,1.6635,2.60051
3328,1.664,2.61018
3329,1.6645,2.60938
3330,1.665,2.60777
3331,1.6655,2.59487
3332,1.666,2.60212
3333,1.6665,2.60857
3334,1.667,2.60615
3335,1.6675,2.58842
3336,1.668,2.5715
3337,1.6685,2.56667
3338,1.669,2.54491
3339,1.6695,2.5304
3340,1.67,2.51348
3341,1.6705,2.50864
3342,1.671,2.4885
3343,1.6715,2.45385
3344,1.672,2.43853
3345,1.6725,2.41033
3346,1.673,2.40791
3347,1.6735,2.41033
3348,1.674,2.41275
3349,1.6745,2.41839
3350,1.675,2.44095
3351,1.6755,2.45143
3352,1.676,2.45546
3353,1.6765,2.46674
3354,1.677,2.47238
3355,1.6775,2.46513
3356,1.678,2.46674
3357,1.6785,2.47399
3358,1.679,2.47238
3359,1.6795,2.45949
3360,1.68,2.45143
3361,1.6805,2.45385
3362,1.681,2.45385
3363,1.6815,2.4611
3364,1.682,2.4611
3365,1.6825,2.46996
3366,1.683,2.47319
3367,1.6835,2.4619
3368,1.684,2.4611
3369,1.6845,2.45143
3370,1.685,2.46674
3371,1.6855,2.4756
3372,1.686,2.47722
3373,1.6865,2.49011
3374,1.687,2.49897
3375,1.6875,2.48769
3376,1.688,2.50381
3377,1.6885,2.50784
3378,1.689,2.51509
3379,1.6895,2.52234
3380,1.69,2.52234
3381,1.6905,2.52637
3382,1.691,2.52396
3383,1.6915,2.50784
3384,1.692,2.50945
3385,1.6925,2.51106
3386,1.693,2.51832
3387,1.6935,2.50945
3388,1.694,2.5159
3389,1.6945,2.50945
3390,1.695,2.49011
3391,1.6955,2.48366
3392,1.696,2.4885
3393,1.6965,2.49253
3394,1.697,2.50462
3395,1.6975,2.49011
3396,1.698,2.50059
3397,1.6985,2.50945
3398,1.699,2.51509
3399,1.6995,2.51026
3400,1.7,2.5159
3401,1.7005,2.50703
3402,1.701,2.5159
3403,1.7015,2.5159
3404,1.702,2.51832
3405,1.7025,2.52234
3406,1.703,2.51993
3407,1.7035,2.51509
3408,1.704,2.52073
3409,1.7045,2.53927
3410,1.705,2.54088
3411,1.7055,2.52396
3412,1.706,2.50864
3413,1.7065,2.49897
3414,1.707,2.48608
3415,1.7075,2.47238
3416,1.708,2.47077
3417,1.7085,2.47319
3418,1.709,2.46916
3419,1.7095,2.46352
3420,1.71,2.46432
3421,1.7105,2.46996
3422,1.711,2.47883
3423,1.7115,2.49495
3424,1.712,2.49011
3425,1.7125,2.503
3426,1.713,2.50059
3427,1.7135,2.50945
3428,1.714,2.51832
3429,1.7145,2.51832
3430,1.715,2.5304
3431,1.7155,2.53121
3432,1.716,2.53766
3433,1.7165,2.54491
3434,1.717,2.53846
3435,1.7175,2.54088
3436,1.718,2.52799
3437,1.7185,2.53121
3438,1.719,2.5296
3439,1.7195,2.52154
3440,1.72,2.49656
3441,1.7205,2.49333
3442,1.721,2.48527
3443,1.7215,2.4748
3444,1.722,2.48286
3445,1.7225,2.48286
3446,1.723,2.47399
3447,1.7235,2.48125
3448,1.724,2.4748
3449,1.7245,2.47399
3450,1.725,2.47158
3451,1.7255,2.47963
3452,1.726,2.47319
3453,1.7265,2.48286
3454,1.727,2.48125
3455,1.7275,2.48366
3456,1.728,2.48044
3457,1.7285,2.49011
3458,1.729,2.48286
3459,1.7295,2.47319
3460,1.73,2.48205
3461,1.7305,2.47883
3462,1.731,2.47963
3463,1.7315,2.47722
3464,1.732,2.46674
3465,1.7325,2.4619
3466,1.733,2.46432
3467,1.7335,2.45868
3468,1.734,2.46271
3469,1.7345,2.45788
3470,1.735,2.47077
3471,1.7355,2.47319
3472,1.736,2.46432
3473,1.7365,2.45385
3474,1.737,2.46513
3475,1.7375,2.46916
3476,1.738,2.4619
3477,1.7385,2.46513
3478,1.739,2.47722
3479,1.7395,2.48527
3480,1.74,2.49253
3481,1.7405,2.48447
3482,1.741,2.49092
3483,1.7415,2.49011
3484,1.742,2.49897
3485,1.7425,2.48447
3486,1.743,2.48044
3487,1.7435,2.47722
3488,1.744,2.4756
3489,1.7445,2.46755
3490,1.745,2.46432
3491,1.7455,2.47077
3492,1.746,2.47077
3493,1.7465,2.46271
3494,1.747,2.46916
3495,1.7475,2.48286
3496,1.748,2.47963
3497,1.7485,2.50139
3498,1.749,2.49414
3499,1.7495,2.50542
3500,1.75,2.50945
3501,1.7505,2.53201
3502,1.751,2.54088
3503,1.7515,2.55458
3504,1.752,2.56747
3505,1.7525,2.57231
3506,1.753,2.56505
3507,1.7535,2.57634
3508,1.754,2.5707
3509,1.7545,2.56425
3510,1.755,2.55458
3511,1.7555,2.5433
3512,1.756,2.53363
3513,1.7565,2.52476
3514,1.757,2.52234
3515,1.7575,2.5159
3516,1.758,2.50381
3517,1.7585,2.47158
3518,1.759,2.45788
3519,1.7595,2.46271
3520,1.76,2.44095
3521,1.7605,2.45788
3522,1.761,2.43612
3523,1.7615,2.45385
3524,1.762,2.46674
3525,1.7625,2.47399
3526,1.763,2.50703
3527,1.7635,2.5296
3528,1.764,2.53363
3529,1.7645,2.53282
3530,1.765,2.54652
3531,1.7655,2.5441
3532,1.766,2.53604
3533,1.7665,2.53604
3534,1.767,2.54088
3535,1.7675,2.53443
3536,1.768,2.53927
3537,1.7685,2.53927
3538,1.769,2.52557
3539,1.7695,2.51509
3540,1.77,2.50945
3541,1.7705,2.50703
3542,1.771,2.503
3543,1.7715,2.49817
3544,1.772,2.503
3545,1.7725,2.49495
3546,1.773,2.48689
3547,1.7735,2.50059
3548,1.774,2.503
3549,1.7745,2.51832
3550,1.775,2.53927
3551,1.7755,2.56344
3552,1.776,2.59165
3553,1.7765,2.62872
3554,1.777,2.65128
3555,1.7775,2.6674
3556,1.778,2.68352
3557,1.7785,2.70044
3558,1.779,2.72784
3559,1.7795,2.73429
3560,1.78,2.76652
3561,1.7805,2.79714
3562,1.781,2.80601
3563,1.7815,2.86322
3564,1.782,2.88579
3565,1.7825,2.92769
3566,1.783,2.96315
3567,1.7835,2.98088
3568,1.784,3.00667
3569,1.7845,3.00667
3570,1.785,3.03407
3571,1.7855,3.02842
3572,1.786,3.05341
3573,1.7865,3.06388
3574,1.787,3.08886
3575,1.7875,3.07758
3576,1.788,3.08967
3577,1.7885,3.08564
3578,1.789,3.08725
3579,1.7895,3.09209
3580,1.79,3.09531
3581,1.7905,3.07678
3582,1.791,3.04777
3583,1.7915,3.04374
3584,1.792,3.02601
3585,1.7925,2.99619
3586,1.793,2.9696
3587,1.7935,2.93092
3588,1.794,2.88579
3589,1.7945,2.84469
3590,1.795,2.80923
3591,1.7955,2.78505
3592,1.796,2.78022
3593,1.7965,2.75927
3594,1.797,2.73187
3595,1.7975,2.69883
3596,1.798,2.67788
3597,1.7985,2.65128
3598,1.799,2.63194
3599,1.7995,2.60857
3600,1.8,2.61744
3601,1.8005,2.62147
3602,1.801,2.60051
3603,1.8015,2.56667
3604,1.802,2.53927
3605,1.8025,2.5159
3606,1.803,2.48366
3607,1.8035,2.41114
3608,1.804,2.36762
3609,1.8045,2.37084
3610,1.805,2.35875
3611,1.8055,2.35392
3612,1.806,2.35875
3613,1.8065,2.36359
3614,1.807,2.3644
3615,1.8075,2.3652
3616,1.808,2.39985
3617,1.8085,2.42081
3618,1.809,2.44337
3619,1.8095,2.45788
3620,1.81,2.47641
3621,1.8105,2.49011
3622,1.811,2.52073
3623,1.8115,2.53927
3624,1.812,2.56183
3625,1.8125,2.57392
3626,1.813,2.60777
3627,1.8135,2.62549
3628,1.814,2.63678
3629,1.8145,2.65773
3630,1.815,2.64886
3631,1.8155,2.63436
3632,1.816,2.63194
3633,1.8165,2.61502
3634,1.817,2.62227
3635,1.8175,2.63355
3636,1.818,2.6126
3637,1.8185,2.61179
3638,1.819,2.59971
3639,1.8195,2.58037
3640,1.82,2.55055
3641,1.8205,2.53443
3642,1.821,2.5167
3643,1.8215,2.52073
3644,1.822,2.52476
3645,1.8225,2.5167
3646,1.823,2.52154
3647,1.8235,2.53766
3648,1.824,2.54571
3649,1.8245,2.55377
3650,1.825,2.54571
3651,1.8255,2.55941
3652,1.826,2.55458
3653,1.8265,2.5715
3654,1.827,2.5441
3655,1.8275,2.54813
3656,1.828,2.55216
3657,1.8285,2.56264
3658,1.829,2.57553
3659,1.8295,2.56989
3660,1.83,2.55861
3661,1.8305,2.56103
3662,1.831,2.557
3663,1.8315,2.55458
3664,1.832,2.54571
3665,1.8325,2.53846
3666,1.833,2.51832
3667,1.8335,2.54088
3668,1.834,2.53201
3669,1.8345,2.53524
3670,1.835,2.53846
3671,1.8355,2.55136
3672,1.836,2.55136
3673,1.8365,2.55216
3674,1.837,2.56344
3675,1.8375,2.57473
3676,1.838,2.58037
3677,1.8385,2.59326
3678,1.839,2.57795
3679,1.8395,2.60696
3680,1.84,2.60696
3681,1.8405,2.61663
3682,1.841,2.63194
3683,1.8415,2.62227
3684,1.842,2.61582
3685,1.8425,2.60938
3686,1.843,2.60777
3687,1.8435,2.60212
3688,1.844,2.5981
3689,1.8445,2.58762
3690,1.845,2.57795
3691,1.8455,2.56103
3692,1.846,2.557
3693,1.8465,2.55458
3694,1.847,2.54571
3695,1.8475,2.53766
3696,1.848,2.5441
3697,1.8485,2.53524
3698,1.849,2.54088
3699,1.8495,2.53927
3700,1.85,2.53766
3701,1.8505,2.53927
3702,1.851,2.56586
3703,1.8515,2.57392
3704,1.852,2.57634
3705,1.8525,2.58037
3706,1.853,2.59326
3707,1.8535,2.59568
3708,1.854,2.60051
3709,1.8545,2.60132
3710,1.855,2.60777
3711,1.8555,2.61905
3712,1.856,2.60777
3713,1.8565,2.59165
3714,1.857,2.59326
3715,1.8575,2.5715
3716,1.858,2.57231
3717,1.8585,2.56667
3718,1.859,2.56586
3719,1.8595,2.55377
3720,1.86,2.55538
3721,1.8605,2.53443
3722,1.861,2.53524
3723,1.8615,2.54007
3724,1.862,2.54894
3725,1.8625,2.54491
3726,1.863,2.55216
3727,1.8635,2.55941
3728,1.864,2.56989
3729,1.8645,2.57392
3730,1.865,2.57956
3731,1.8655,2.58681
3732,1.866,2.58762
3733,1.8665,2.58762
3734,1.867,2.58681
3735,1.8675,2.59729
3736,1.868,2.60051
3737,1.8685,2.61179
3738,1.869,2.61905
3739,1.8695,2.6126
3740,1.87,2.62388
3741,1.8705,2.64242
3742,1.871,2.63355
3743,1.8715,2.62469
3744,1.872,2.6126
3745,1.8725,2.62872
3746,1.873,2.63839
3747,1.8735,2.63839
3748,1.874,2.66418
3749,1.8745,2.68352
3750,1.875,2.69319
3751,1.8755,2.71172
3752,1.876,2.73348
3753,1.8765,2.73751
3754,1.877,2.75685
3755,1.8775,2.75443
3756,1.878,2.7633
3757,1.8785,2.76652
3758,1.879,2.74718
3759,1.8795,2.72542
3760,1.88,2.71495
3761,1.8805,2.71172
3762,1.881,2.69077
3763,1.8815,2.68593
3764,1.882,2.68352
3765,1.8825,2.66015
3766,1.883,2.64886
3767,1.8835,2.63839
3768,1.884,2.5852
3769,1.8845,2.61179
3770,1.885,2.61099
3771,1.8855,2.61018
3772,1.886,2.60615
3773,1.8865,2.6126
3774,1.887,2.59971
3775,1.8875,2.59729
3776,1.888,2.60615
3777,1.8885,2.60212
3778,1.889,2.6126
3779,1.8895,2.60696
3780,1.89,2.59971
3781,1.8905,2.62791
3782,1.891,2.64081
3783,1.8915,2.63114
3784,1.892,2.63839
3785,1.8925,2.64081
3786,1.893,2.63355
3787,1.8935,2.63758
3788,1.894,2.62147
3789,1.8945,2.63678
3790,1.895,2.62469
3791,1.8955,2.62147
3792,1.896,2.61905
3793,1.8965,2.62872
3794,1.897,2.63194
3795,1.8975,2.63033
3796,1.898,2.62308
3797,1.8985,2.62549
3798,1.899,2.64161
3799,1.8995,2.64484
3800,1.9,2.64484
3801,1.9005,2.65773
3802,1.901,2.66418
3803,1.9015,2.66982
3804,1.902,2.67223
3805,1.9025,2.68513
3806,1.903,2.68996
3807,1.9035,2.69399
3808,1.904,2.70608
3809,1.9045,2.71172
3810,1.905,2.70689
3811,1.9055,2.71575
3812,1.906,2.71736
3813,1.9065,2.7093
3814,1.907,2.70205
3815,1.9075,2.68996
3816,1.908,2.6948
3817,1.9085,2.69077
3818,1.909,2.6956
3819,1.9095,2.69319
3820,1.91,2.69883
3821,1.9105,2.69963
3822,1.911,2.70044
3823,1.9115,2.69883
3824,1.912,2.69641
3825,1.9125,2.69883
3826,1.913,2.70366
3827,1.9135,2.71333
3828,1.914,2.71172
3829,1.9145,2.73026
3830,1.915,2.72381
3831,1.9155,2.73026
3832,1.916,2.74396
3833,1.9165,2.74154
3834,1.917,2.75282
3835,1.9175,2.74154
3836,1.918,2.73751
3837,1.9185,2.74557
3838,1.919,2.7496
3839,1.9195,2.75604
3840,1.92,2.7504
3841,1.9205,2.75846
3842,1.921,2.75282
3843,1.9215,2.74476
3844,1.922,2.73348
3845,1.9225,2.7367
3846,1.923,2.73187
3847,1.9235,2.75927
3848,1.924,2.7641
3849,1.9245,2.77297
3850,1.925,2.78022
3851,1.9255,2.77941
3852,1.926,2.78908
3853,1.9265,2.79473
3854,1.927,2.79392
3855,1.9275,2.79392
3856,1.928,2.81729
3857,1.9285,2.80601
3858,1.929,2.78264
3859,1.9295,2.8044
3860,1.93,2.80198
3861,1.9305,2.7915
3862,1.931,2.80037
3863,1.9315,2.80842
3864,1.932,2.7915
3865,1.9325,2.79311
3866,1.933,2.78908
3867,1.9335,2.78264
3868,1.934,2.78586
3869,1.9345,2.78425
3870,1.935,2.77538
3871,1.9355,2.78264
3872,1.936,2.7915
3873,1.9365,2.79956
3874,1.937,2.80842
3875,1.9375,2.81971
3876,1.938,2.81487
3877,1.9385,2.83582
3878,1.939,2.84469
3879,1.9395,2.84872
3880,1.94,2.84388
3881,1.9405,2.85114
3882,1.941,2.85033
3883,1.9415,2.84066
3884,1.942,2.84952
3885,1.9425,2.84469
3886,1.943,2.84066
3887,1.9435,2.85114
3888,1.944,2.82777
3889,1.9445,2.84066
3890,1.945,2.82777
3891,1.9455,2.82293
3892,1.946,2.8189
3893,1.9465,2.81326
3894,1.947,2.79392
3895,1.9475,2.80923
3896,1.948,2.79714
3897,1.9485,2.80198
3898,1.949,2.81245
3899,1.9495,2.81084
3900,1.95,2.8189
3901,1.9505,2.82535
3902,1.951,2.83179
3903,1.9515,2.83179
3904,1.952,2.83582
3905,1.9525,2.83582
3906,1.953,2.84147
3907,1.9535,2.84549
3908,1.954,2.83663
3909,1.9545,2.84066
3910,1.955,2.84469
3911,1.9555,2.84711
3912,1.956,2.84147
3913,1.9565,2.83663
3914,1.957,2.82696
3915,1.9575,2.81487
3916,1.958,2.80842
3917,1.9585,2.79875
3918,1.959,2.79875
3919,1.9595,2.78747
3920,1.96,2.79311
3921,1.9605,2.79311
3922,1.961,2.80198
3923,1.9615,2.81165
3924,1.962,2.8181
3925,1.9625,2.81971
3926,1.963,2.8326
3927,1.9635,2.83179
3928,1.964,2.85355
3929,1.9645,2.84066
3930,1.965,2.84469
3931,1.9655,2.83824
3932,1.966,2.84469
3933,1.9665,2.8326
3934,1.967,2.83824
3935,1.9675,2.82777
3936,1.968,2.8189
3937,1.9685,2.81165
3938,1.969,2.78667
3939,1.9695,2.77297
3940,1.97,2.74396
3941,1.9705,2.74396
3942,1.971,2.73106
3943,1.9715,2.71736
3944,1.972,2.71333
3945,1.9725,2.69641
3946,1.973,2.68029
3947,1.9735,2.68916
3948,1.974,2.6819
3949,1.9745,2.68593
3950,1.975,2.67465
3951,1.9755,2.68593
3952,1.976,2.69641
3953,1.9765,2.68996
3954,1.977,2.68593
3955,1.9775,2.68593
3956,1.978,2.68996
3957,1.9785,2.68916
3958,1.979,2.67304
3959,1.9795,2.66337
3960,1.98,2.65612
3961,1.9805,2.64403
3962,1.981,2.63678
3963,1.9815,2.61582
3964,1.982,2.60293
3965,1.9825,2.59326
3966,1.983,2.59326
3967,1.9835,2.5852
3968,1.984,2.57392
3969,1.9845,2.57714
3970,1.985,2.56747
3971,1.9855,2.55458
3972,1.986,2.57795
3973,1.9865,2.56747
3974,1.987,2.5707
3975,1.9875,2.56989
3976,1.988,2.57392
3977,1.9885,2.56667
3978,1.989,2.56425
3979,1.9895,2.56667
3980,1.99,2.56183
3981,1.9905,2.54813
3982,1.991,2.51832
3983,1.9915,2.49897
3984,1.992,2.49575
3985,1.9925,2.50059
3986,1.993,2.49897
3987,1.9935,2.49253
3988,1.994,2.48689
3989,1.9945,2.47963
3990,1.995,2.47883
3991,1.9955,2.46352
3992,1.996,2.46271
3993,1.9965,2.46674
3994,1.997,2.48366
3995,1.9975,2.49011
3996,1.998,2.49253
3997,1.9985,2.49656
3998,1.999,2.49897
3999,1.9995,2.503
4000,2.0,2.49978
4001,2.0005,2.52476
4002,2.001,2.52879
4003,2.0015,2.5433
4004,2.002,2.54652
4005,2.0025,2.5441
4006,2.003,2.53846
4007,2.0035,2.53443
4008,2.004,2.53524
4009,2.0045,2.54571
4010,2.005,2.53927
4011,2.0055,2.53927
4012,2.006,2.51832
4013,2.0065,2.52637
4014,2.007,2.5159
4015,2.0075,2.50703
4016,2.008,2.49575
4017,2.0085,2.48366
4018,2.009,2.48044
4019,2.0095,2.48286
4020,2.01,2.46593
4021,2.0105,2.47077
4022,2.011,2.46352
4023,2.0115,2.46352
4024,2.012,2.4619
4025,2.0125,2.46674
4026,2.013,2.45143
4027,2.0135,2.45788
4028,2.014,2.46352
4029,2.0145,2.46674
4030,2.015,2.46432
4031,2.0155,2.46674
4032,2.016,2.46674
4033,2.0165,2.45788
4034,2.017,2.47077
4035,2.0175,2.47883
4036,2.018,2.46996
4037,2.0185,2.47883
4038,2.019,2.45223
4039,2.0195,2.45385
4040,2.02,2.44821
4041,2.0205,2.44176
4042,2.021,2.43934
4043,2.0215,2.44659
4044,2.022,2.44176
4045,2.0225,2.44256
4046,2.023,2.45223
4047,2.0235,2.46029
4048,2.024,2.4611
4049,2.0245,2.47883
4050,2.025,2.48205
4051,2.0255,2.48527
4052,2.026,2.49172
4053,2.0265,2.49495
4054,2.027,2.50784
4055,2.0275,2.49253
4056,2.028,2.49736
4057,2.0285,2.49817
4058,2.029,2.49414
4059,2.0295,2.49253
4060,2.03,2.50381
4061,2.0305,2.51106
4062,2.031,2.51187
4063,2.0315,2.49253
4064,2.032,2.4885
4065,2.0325,2.48447
4066,2.033,2.47963
4067,2.0335,2.47883
4068,2.034,2.46029
4069,2.0345,2.45143
4070,2.035,2.43531
4071,2.0355,2.43209
4072,2.036,2.42081
4073,2.0365,2.41194
4074,2.037,2.42322
4075,2.0375,2.43209
4076,2.038,2.45143
4077,2.0385,2.46271
4078,2.039,2.45223
4079,2.0395,2.45143
4080,2.04,2.46029
4081,2.0405,2.4611
4082,2.041,2.47238
4083,2.0415,2.47319
4084,2.042,2.4756
4085,2.0425,2.46674
4086,2.043,2.47158
4087,2.0435,2.47077
4088,2.044,2.46835
4089,2.0445,2.46352
4090,2.045,2.45788
4091,2.0455,2.45465
4092,2.046,2.43934
4093,2.0465,2.43289
4094,2.047,2.44337
4095,2.0475,2.43209
4096,2.048,2.43853
4097,2.0485,2.44256
4098,2.049,2.43773
4099,2.0495,2.44821
4100,2.05,2.44095
4101,2.0505,2.44901
4102,2.051,2.44256
4103,2.0515,2.46029
4104,2.052,2.46674
4105,2.0525,2.46352
4106,2.053,2.47238
4107,2.0535,2.47963
4108,2.054,2.4756
4109,2.0545,2.47963
4110,2.055,2.47158
4111,2.0555,2.47077
4112,2.056,2.47963
4113,2.0565,2.47399
4114,2.057,2.47963
4115,2.0575,2.47399
4116,2.058,2.46674
4117,2.0585,2.4619
4118,2.059,2.45707
4119,2.0595,2.45707
4120,2.06,2.45788
4121,2.0605,2.44498
4122,2.061,2.46916
4123,2.0615,2.4611
4124,2.062,2.45788
4125,2.0625,2.46271
4126,2.063,2.46916
4127,2.0635,2.46835
4128,2.064,2.47802
4129,2.0645,2.48366
4130,2.065,2.50139
4131,2.0655,2.50542
4132,2.066,2.49172
4133,2.0665,2.48608
4134,2.067,2.49656
4135,2.0675,2.49656
4136,2.068,2.4893
4137,2.0685,2.48044
4138,2.069,2.47319
4139,2.0695,2.47077
4140,2.07,2.46674
4141,2.0705,2.46674
4142,2.071,2.46996
4143,2.0715,2.46352
4144,2.072,2.45465
4145,2.0725,2.45143
4146,2.073,2.43853
4147,2.0735,2.43853
4148,2.074,2.46029
4149,2.0745,2.46674
4150,2.075,2.47883
4151,2.0755,2.46835
4152,2.076,2.48205
4153,2.0765,2.48286
4154,2.077,2.49736
4155,2.0775,2.51187
4156,2.078,2.52073
4157,2.0785,2.52234
4158,2.079,2.5167
4159,2.0795,2.51026
4160,2.08,2.50462
4161,2.0805,2.49092
4162,2.081,2.49253
4163,2.0815,2.49978
4164,2.082,2.49253
4165,2.0825,2.48205
4166,2.083,2.48366
4167,2.0835,2.47399
4168,2.084,2.46996
4169,2.0845,2.47963
4170,2.085,2.48286
4171,2.0855,2.47077
4172,2.086,2.47722
4173,2.0865,2.48286
4174,2.087,2.49011
4175,2.0875,2.50542
4176,2.088,2.503
4177,2.0885,2.51267
4178,2.089,2.51509
4179,2.0895,2.51348
4180,2.09,2.52396
4181,2.0905,2.52234
4182,2.091,2.53201
4183,2.0915,2.5159
4184,2.092,2.51832
4185,2.0925,2.50059
4186,2.093,2.50945
4187,2.0935,2.49897
4188,2.094,2.49414
4189,2.0945,2.49656
4190,2.095,2.49011
4191,2.0955,2.49253
4192,2.096,2.47883
4193,2.0965,2.47399
4194,2.097,2.48205
4195,2.0975,2.46996
4196,2.098,2.46593
4197,2.0985,2.46432
4198,2.099,2.46432
4199,2.0995,2.45707
4200,2.1,2.46674
4201,2.1005,2.46674
4202,2.101,2.48205
4203,2.1015,2.50542
4204,2.102,2.51429
4205,2.1025,2.5167
4206,2.103,2.51187
4207,2.1035,2.5304
4208,2.104,2.53524
4209,2.1045,2.54813
4210,2.105,2.53524
4211,2.1055,2.53201
4212,2.106,2.53846
4213,2.1065,2.52557
4214,2.107,2.51751
4215,2.1075,2.49736
4216,2.108,2.50462
4217,2.1085,2.50139
4218,2.109,2.49253
4219,2.1095,2.49656
4220,2.11,2.49414
4221,2.1105,2.48527
4222,2.111,2.49172
4223,2.1115,2.49575
4224,2.112,2.49414
4225,2.1125,2.48769
4226,2.113,2.50703
4227,2.1135,2.49897
4228,2.114,2.51348
4229,2.1145,2.50864
4230,2.115,2.51832
4231,2.1155,2.52396
4232,2.116,2.53121
4233,2.1165,2.53201
4234,2.117,2.5304
4235,2.1175,2.52234
4236,2.118,2.51106
4237,2.1185,2.51348
4238,2.119,2.49978
4239,2.1195,2.49495
4240,2.12,2.49253
4241,2.1205,2.48286
4242,2.121,2.48366
4243,2.1215,2.48286
4244,2.122,2.48286
4245,2.1225,2.47399
4246,2.123,2.47963
4247,2.1235,2.4893
4248,2.124,2.49253
4249,2.1245,2.4885
4250,2.125,2.50784
4251,2.1255,2.50542
4252,2.126,2.51267
4253,2.1265,2.51912
4254,2.127,2.51348
4255,2.1275,2.5159
4256,2.128,2.5167
4257,2.1285,2.53363
4258,2.129,2.52234
4259,2.1295,2.52476
4260,2.13,2.51832
4261,2.1305,2.51912
4262,2.131,2.51187
4263,2.1315,2.51429
4264,2.132,2.50864
4265,2.1325,2.49817
4266,2.133,2.48689
4267,2.1335,2.48205
4268,2.134,2.48608
4269,2.1345,2.49172
4270,2.135,2.47399
4271,2.1355,2.48205
4272,2.136,2.49092
4273,2.1365,2.49253
4274,2.137,2.48205
4275,2.1375,2.49495
4276,2.138,2.50945
4277,2.1385,2.50059
4278,2.139,2.50542
4279,2.1395,2.51026
4280,2.14,2.50864
4281,2.1405,2.52557
4282,2.141,2.52234
4283,2.1415,2.51832
4284,2.142,2.52396
4285,2.1425,2.51993
4286,2.143,2.51832
4287,2.1435,2.50703
4288,2.144,2.49897
4289,2.1445,2.49414
4290,2.145,2.49011
4291,2.1455,2.48608
4292,2.146,2.48366
4293,2.1465,2.49656
4294,2.147,2.49253
4295,2.1475,2.4885
4296,2.148,2.48366
4297,2.1485,2.48608
4298,2.149,2.49978
4299,2.1495,2.49897
4300,2.15,2.50945
4301,2.1505,2.503
4302,2.151,2.5022
4303,2.1515,2.50703
4304,2.152,2.51832
4305,2.1525,2.51348
4306,2.153,2.51348
4307,2.1535,2.52073
4308,2.154,2.51187
4309,2.1545,2.50703
4310,2.155,2.51348
4311,2.1555,2.51429
4312,2.156,2.50945
4313,2.1565,2.50462
4314,2.157,2.49897
4315,2.1575,2.49253
4316,2.158,2.4756
4317,2.1585,2.47963
4318,2.159,2.47883
4319,2.1595,2.48044
4320,2.16,2.47722
4321,2.1605,2.4748
4322,2.161,2.4885
4323,2.1615,2.50059
4324,2.162,2.49656
4325,2.1625,2.50542
4326,2.163,2.51026
4327,2.1635,2.53363
4328,2.164,2.53524
4329,2.1645,2.5304
4330,2.165,2.53524
4331,2.1655,2.91802
4332,2.166,2.53927
4333,2.1665,2.53604
4334,2.167,2.54491
4335,2.1675,2.54491
4336,2.168,2.54813
4337,2.1685,2.54088
4338,2.169,2.53524
4339,2.1695,2.52557
4340,2.17,2.51026
4341,2.1705,2.503
4342,2.171,2.49656
4343,2.1715,2.49897
4344,2.172,2.503
4345,2.1725,2.50139
4346,2.173,2.49172
4347,2.1735,2.48608
4348,2.174,2.50623
4349,2.1745,2.51348
4350,2.175,2.5159
4351,2.1755,2.51187
4352,2.176,2.50542
4353,2.1765,2.50542
4354,2.177,2.52476
4355,2.1775,2.53363
4356,2.178,2.52557
4357,2.1785,2.52396
4358,2.179,2.51832
4359,2.1795,2.52879
4360,2.18,2.53524
4361,2.1805,2.53201
4362,2.181,2.53927
4363,2.1815,2.55619
4364,2.182,2.56183
4365,2.1825,2.54169
4366,2.183,2.54733
4367,2.1835,2.53846
4368,2.184,2.54249
4369,2.1845,2.55216
4370,2.185,2.557
4371,2.1855,2.54974
4372,2.186,2.54169
4373,2.1865,2.53846
4374,2.187,2.54571
4375,2.1875,2.56667
4376,2.188,2.58923
4377,2.1885,2.59326
4378,2.189,2.59245
4379,2.1895,2.58681
4380,2.19,2.5852
4381,2.1905,2.56989
4382,2.191,2.57956
4383,2.1915,2.56747
4384,2.192,2.57231
4385,2.1925,2.57553
4386,2.193,2.557
4387,2.1935,2.57795
4388,2.194,2.57875
4389,2.1945,2.56505
4390,2.195,2.56344
4391,2.1955,2.55216
4392,2.196,2.55458
4393,2.1965,2.557
4394,2.197,2.55861
4395,2.1975,2.56022
4396,2.198,2.56103
4397,2.1985,2.57956
4398,2.199,2.58037
4399,2.1995,2.57473
4400,2.2,2.57875
4401,2.2005,2.59245
4402,2.201,2.59729
4403,2.2015,2.60212
4404,2.202,2.59568
4405,2.2025,2.61018
4406,2.203,2.60374
4407,2.2035,2.60212
4408,2.204,2.60938
4409,2.2045,2.60051
4410,2.205,2.58762
4411,2.2055,2.60212
4412,2.206,2.57795
4413,2.2065,2.58198
4414,2.207,2.56747
4415,2.2075,2.55055
4416,2.208,2.53766
4417,2.2085,2.53927
4418,2.209,2.53524
4419,2.2095,2.5304
4420,2.21,2.51106
4421,2.2105,2.51832
4422,2.211,2.54088
4423,2.2115,2.51267
4424,2.212,2.5167
4425,2.2125,2.51993
4426,2.213,2.52234
4427,2.2135,2.5304
4428,2.214,2.53363
4429,2.2145,2.53685
4430,2.215,2.53121
4431,2.2155,2.53524
4432,2.216,2.5441
4433,2.2165,2.53685
4434,2.217,2.53766
4435,2.2175,2.5296
4436,2.218,2.5296
4437,2.2185,2.5304
4438,2.219,2.53766
4439,2.2195,2.54007
4440,2.22,2.55458
4441,2.2205,2.55619
4442,2.221,2.53443
4443,2.2215,2.50462
4444,2.222,2.49978
4445,2.2225,2.49575
4446,2.223,2.503
4447,2.2235,2.50139
4448,2.224,2.50784
4449,2.2245,2.49897
4450,2.225,2.49011
4451,2.2255,2.49172
4452,2.226,2.50784
4453,2.2265,2.52073
4454,2.227,2.53363
4455,2.2275,2.53201
4456,2.228,2.51751
4457,2.2285,2.51348
4458,2.229,2.52154
4459,2.2295,2.52557
4460,2.23,2.5296
4461,2.2305,2.53604
4462,2.231,2.52234
4463,2.2315,2.51832
4464,2.232,2.52879
4465,2.2325,2.51348
4466,2.233,2.50945
4467,2.2335,2.50703
4468,2.234,2.503
4469,2.2345,2.49656
4470,2.235,2.49978
4471,2.2355,2.50945
4472,2.236,2.50059
4473,2.2365,2.52073
4474,2.237,2.51832
4475,2.2375,2.52073
4476,2.238,2.50945
4477,2.2385,2.51348
4478,2.239,2.51912
4479,2.2395,2.51267
4480,2.24,2.53121
4481,2.2405,2.53121
4482,2.241,2.53524
4483,2.2415,2.53846
4484,2.242,2.53846
4485,2.2425,2.52154
4486,2.243,2.51912
4487,2.2435,2.51348
4488,2.244,2.50784
4489,2.2445,2.50945
4490,2.245,2.50623
4491,2.2455,2.50784
4492,2.246,2.503
4493,2.2465,2.5022
4494,2.247,2.49414
4495,2.2475,2.49897
4496,2.248,2.49414
4497,2.2485,2.49736
4498,2.249,2.49897
4499,2.2495,2.49495
4500,2.25,2.50784
4501,2.2505,2.5159
4502,2.251,2.50864
4503,2.2515,2.52073
4504,2.252,2.51187
4505,2.2525,2.5159
4506,2.253,2.53443
4507,2.2535,2.54652
4508,2.254,2.55055
4509,2.2545,2.54007
4510,2.255,2.53524
4511,2.2555,2.5304
4512,2.256,2.53524
4513,2.2565,2.52476
4514,2.257,2.52315
4515,2.2575,2.52396
4516,2.258,2.52234
4517,2.2585,2.51348
4518,2.259,2.51026
4519,2.2595,2.50945
4520,2.26,2.50784
4521,2.2605,2.50945
4522,2.261,2.53121
4523,2.2615,2.52557
4524,2.262,2.52476
4525,2.2625,2.53121
4526,2.263,2.51912
4527,2.2635,2.53846
4528,2.264,2.53604
4529,2.2645,2.55055
4530,2.265,2.5441
4531,2.2655,2.54571
4532,2.266,2.54813
4533,2.2665,2.53604
4534,2.267,2.52718
4535,2.2675,2.52315
4536,2.268,2.53443
4537,2.2685,2.53766
4538,2.269,2.5296
4539,2.2695,2.52718
4540,2.27,2.5167
4541,2.2705,2.51267
4542,2.271,2.52637
4543,2.2715,2.52718
4544,2.272,2.52073
4545,2.2725,2.52154
4546,2.273,2.52073
4547,2.2735,2.51832
4548,2.274,2.52718
4549,2.2745,2.54249
4550,2.275,2.5578
4551,2.2755,2.56183
4552,2.276,2.57553
4553,2.2765,2.58278
4554,2.277,2.60696
4555,2.2775,2.6263
4556,2.278,2.65209
4557,2.2785,2.68432
4558,2.279,2.69802
4559,2.2795,2.72623
4560,2.28,2.75121
4561,2.2805,2.75846
4562,2.281,2.78103
4563,2.2815,2.78264
4564,2.282,2.80198
4565,2.2825,2.81729
4566,2.283,2.84549
4567,2.2835,2.87531
4568,2.284,2.9156
4569,2.2845,2.96557
4570,2.285,2.98007
4571,2.2855,3.01473
4572,2.286,3.0252
4573,2.2865,3.05099
4574,2.287,3.06952
4575,2.2875,3.09289
4576,2.288,3.11304
4577,2.2885,3.11868
4578,2.289,3.12835
4579,2.2895,3.11788
4580,2.29,3.11385
4581,2.2905,3.10095
4582,2.291,3.10579
4583,2.2915,3.11062
4584,2.292,3.11546
4585,2.2925,3.09531
4586,2.293,3.0663
4587,2.2935,3.04293
4588,2.294,3.01231
4589,2.2945,2.97363
4590,2.295,2.94864
4591,2.2955,2.91238
4592,2.296,2.86161
4593,2.2965,2.81245
4594,2.297,2.7907
4595,2.2975,2.77619
4596,2.298,2.77136
4597,2.2985,2.73429
4598,2.299,2.73106
4599,2.2995,2.67465
4600,2.3,2.65289
4601,2.3005,2.62066
4602,2.301,2.60857
4603,2.3015,2.60051
4604,2.302,2.58037
4605,2.3025,2.5707
4606,2.303,2.53846
4607,2.3035,2.49897
4608,2.304,2.47963
4609,2.3045,2.44337
4610,2.305,2.38615
4611,2.3055,2.32491
4612,2.306,2.32491
4613,2.3065,2.32894
4614,2.307,2.3241
4615,2.3075,2.34344
4616,2.308,2.3507
4617,2.3085,2.3789
4618,2.309,2.38132
4619,2.3095,2.40549
4620,2.31,2.41275
4621,2.3105,2.4611
4622,2.311,2.49253
4623,2.3115,2.50703
4624,2.312,2.5433
4625,2.3125,2.56103
4626,2.313,2.58278
4627,2.3135,2.60696
4628,2.314,2.62388
4629,2.3145,2.64806
4630,2.315,2.65773
4631,2.3155,2.68835
4632,2.316,2.69158
4633,2.3165,2.68593
4634,2.317,2.69641
4635,2.3175,2.70286
4636,2.318,2.68755
4637,2.3185,2.6948
4638,2.319,2.6811
4639,2.3195,2.68352
4640,2.32,2.68029
4641,2.3205,2.6811
4642,2.321,2.66176
4643,2.3215,2.6537
4644,2.322,2.63355
4645,2.3225,2.62388
4646,2.323,2.6126
4647,2.3235,2.61099
4648,2.324,2.60857
4649,2.3245,2.58601
4650,2.325,2.59568
4651,2.3255,2.60374
4652,2.326,2.58681
4653,2.3265,2.58278
4654,2.327,2.58681
4655,2.3275,2.59487
4656,2.328,2.58681
4657,2.3285,2.58278
4658,2.329,2.57392
4659,2.3295,2.58681
4660,2.33,2.58037
4661,2.3305,2.60051
4662,2.331,2.59326
4663,2.3315,2.60132
4664,2.332,2.59326
4665,2.3325,2.59648
4666,2.333,2.58601
4667,2.3335,2.58681
4668,2.334,2.5715
4669,2.3345,2.58037
4670,2.335,2.56586
4671,2.3355,2.50542
4672,2.336,2.49092
4673,2.3365,2.4756
4674,2.337,2.46352
4675,2.3375,2.45304
4676,2.338,2.45143
4677,2.3385,2.45385
4678,2.339,2.46432
4679,2.3395,2.48205
4680,2.34,2.48608
4681,2.3405,2.49253
4682,2.341,2.48366
4683,2.3415,2.49333
4684,2.342,2.49333
4685,2.3425,2.50623
4686,2.343,2.50542
4687,2.3435,2.50462
4688,2.344,2.50542
4689,2.3445,2.50139
4690,2.345,2.49897
4691,2.3455,2.49656
4692,2.346,2.49172
4693,2.3465,2.51026
4694,2.347,2.50784
4695,2.3475,2.51429
4696,2.348,2.5159
4697,2.3485,2.51187
4698,2.349,2.52476
4699,2.3495,2.53121
4700,2.35,2.53121
4701,2.3505,2.53604
4702,2.351,2.54974
4703,2.3515,2.55941
4704,2.352,2.55055
4705,2.3525,2.57231
4706,2.353,2.58037
4707,2.3535,2.58278
4708,2.354,2.59084
4709,2.3545,2.60938
4710,2.355,2.61341
4711,2.3555,2.60857
4712,2.356,2.5989
4713,2.3565,2.60293
4714,2.357,2.5989
4715,2.3575,2.59407
4716,2.358,2.59568
4717,2.3585,2.5981
4718,2.359,2.58278
4719,2.3595,2.58278
4720,2.36,2.5852
4721,2.3605,2.58278
4722,2.361,2.58278
4723,2.3615,2.5989
4724,2.362,2.60777
4725,2.3625,2.59729
4726,2.363,2.61099
4727,2.3635,2.60938
4728,2.364,2.62388
4729,2.3645,2.64
4730,2.365,2.64886
4731,2.3655,2.64725
4732,2.366,2.65692
4733,2.3665,2.66982
4734,2.367,2.66176
4735,2.3675,2.67143
4736,2.368,2.67788
4737,2.3685,2.68513
4738,2.369,2.69238
4739,2.3695,2.68352
4740,2.37,2.6819
4741,2.3705,2.66901
4742,2.371,2.65128
4743,2.3715,2.64081
4744,2.372,2.64484
4745,2.3725,2.63919
4746,2.373,2.62711
4747,2.3735,2.63436
4748,2.374,2.64161
4749,2.3745,2.64806
4750,2.375,2.64242
4751,2.3755,2.63758
4752,2.376,2.63436
4753,2.3765,2.65692
4754,2.377,2.67062
4755,2.3775,2.66498
4756,2.378,2.66982
4757,2.3785,2.66418
4758,2.379,2.66579
4759,2.3795,2.67062
4760,2.38,2.67223
4761,2.3805,2.67788
4762,2.381,2.68352
4763,2.3815,2.68996
4764,2.382,2.68352
4765,2.3825,2.67949
4766,2.383,2.67304
4767,2.3835,2.67385
4768,2.384,2.67626
4769,2.3845,2.66982
4770,2.385,2.65612
4771,2.3855,2.65612
4772,2.386,2.6819
4773,2.3865,2.67546
4774,2.387,2.68755
4775,2.3875,2.67707
4776,2.388,2.66015
4777,2.3885,2.6956
4778,2.389,2.70286
4779,2.3895,2.71978
4780,2.39,2.70769
4781,2.3905,2.70689
4782,2.391,2.7093
4783,2.3915,2.7222
4784,2.392,2.71978
4785,2.3925,2.73267
4786,2.393,2.72864
4787,2.3935,2.72542
4788,2.394,2.73026
4789,2.3945,2.72864
4790,2.395,2.73509
4791,2.3955,2.72703
4792,2.396,2.71333
4793,2.3965,2.72542
4794,2.397,2.72462
4795,2.3975,2.72462
4796,2.398,2.72945
4797,2.3985,2.72703
4798,2.399,2.73187
4799,2.3995,2.7222
4800,2.4,2.69399
4801,2.4005,2.73509
4802,2.401,2.72462
4803,2.4015,2.72462
4804,2.402,2.74234
4805,2.4025,2.7504
4806,2.403,2.76249
4807,2.4035,2.76974
4808,2.404,2.76813
4809,2.4045,2.75846
4810,2.405,2.76249
4811,2.4055,2.76088
4812,2.406,2.75766
4813,2.4065,2.7504
4814,2.407,2.74476
4815,2.4075,2.7504
4816,2.408,2.73912
4817,2.4085,2.74234
4818,2.409,2.74234
4819,2.4095,2.74154
4820,2.41,2.73267
4821,2.4105,2.73348
4822,2.411,2.74154
4823,2.4115,2.73912
4824,2.412,2.74799
4825,2.4125,2.74154
4826,2.413,2.74557
4827,2.4135,2.76652
4828,2.414,2.77861
4829,2.4145,2.77458
4830,2.415,2.80359
4831,2.4155,2.79553
4832,2.416,2.79311
4833,2.4165,2.80198
4834,2.417,2.80601
4835,2.4175,2.80601
4836,2.418,2.80923
4837,2.4185,2.81084
4838,2.419,2.80762
4839,2.4195,2.8181
4840,2.42,2.82777
4841,2.4205,2.80278
4842,2.421,2.8044
4843,2.4215,2.79634
4844,2.422,2.80601
4845,2.4225,2.81568
4846,2.423,2.80681
4847,2.4235,2.81245
4848,2.424,2.80117
4849,2.4245,2.80359
4850,2.425,2.80842
4851,2.4255,2.80681
4852,2.426,2.82535
4853,2.4265,2.83502
4854,2.427,2.84308
4855,2.4275,2.84308
4856,2.428,2.84791
4857,2.4285,2.84469
4858,2.429,2.84469
4859,2.4295,2.84388
4860,2.43,2.84227
4861,2.4305,2.84308
4862,2.431,2.84711
4863,2.4315,2.83985
4864,2.432,2.84388
4865,2.4325,2.8463
4866,2.433,2.83179
4867,2.4335,2.83502
4868,2.434,2.83421
4869,2.4345,2.84872
4870,2.435,2.86
4871,2.4355,2.85275
4872,2.436,2.85678
4873,2.4365,2.86403
4874,2.437,2.86967
4875,2.4375,2.85919
4876,2.438,2.86403
4877,2.4385,2.87531
4878,2.439,2.85758
4879,2.4395,2.88579
4880,2.44,2.9011
4881,2.4405,2.90916
4882,2.441,2.91077
4883,2.4415,2.90513
4884,2.442,2.9019
4885,2.4425,2.89546
4886,2.443,2.89788
4887,2.4435,2.89707
4888,2.444,2.90271
4889,2.4445,2.89788
4890,2.445,2.90271
4891,2.4455,2.9019
4892,2.446,2.90029
4893,2.4465,2.89223
4894,2.447,2.89143
4895,2.4475,2.89385
4896,2.448,2.89304
4897,2.4485,2.90835
4898,2.449,2.89304
4899,2.4495,2.89465
4900,2.45,2.88901
4901,2.4505,2.89546
4902,2.451,2.9011
4903,2.4515,2.91399
4904,2.452,2.91963
4905,2.4525,2.93011
4906,2.453,2.91802
4907,2.4535,2.93736
4908,2.454,2.93575
4909,2.4545,2.93495
4910,2.455,2.9293
4911,2.4555,2.92527
4912,2.456,2.92769
4913,2.4565,2.91802
4914,2.457,2.92527
4915,2.4575,2.9285
4916,2.458,2.91158
4917,2.4585,2.90674
4918,2.459,2.91077
4919,2.4595,2.90352
4920,2.46,2.86403
4921,2.4605,2.89223
4922,2.461,2.88982
4923,2.4615,2.88337
4924,2.462,2.88982
4925,2.4625,2.89868
4926,2.463,2.88579
4927,2.4635,2.88579
4928,2.464,2.88579
4929,2.4645,2.89143
4930,2.465,2.89223
4931,2.4655,2.90916
4932,2.466,2.91238
4933,2.4665,2.90674
4934,2.467,2.89304
4935,2.4675,2.8874
4936,2.468,2.87934
4937,2.4685,2.8737
4938,2.469,2.86242
4939,2.4695,2.84711
4940,2.47,2.85275
4941,2.4705,2.83421
4942,2.471,2.82777
4943,2.4715,2.82696
4944,2.472,2.81487
4945,2.4725,2.80037
4946,2.473,2.79311
4947,2.4735,2.79553
4948,2.474,2.79392
4949,2.4745,2.78747
4950,2.475,2.78989
4951,2.4755,2.77297
4952,2.476,2.78264
4953,2.4765,2.77216
4954,2.477,2.77458
4955,2.4775,2.77377
4956,2.478,2.76733
4957,2.4785,2.76249
4958,2.479,2.76088
4959,2.4795,2.74879
4960,2.48,2.73509
4961,2.4805,2.71817
4962,2.481,2.71414
4963,2.4815,2.70608
4964,2.482,2.69963
4965,2.4825,2.69238
4966,2.483,2.67707
4967,2.4835,2.66982
4968,2.484,2.65773
4969,2.4845,2.65128
4970,2.485,2.63355
4971,2.4855,2.64242
4972,2.486,2.62469
4973,2.4865,2.62147
4974,2.487,2.62711
4975,2.4875,2.63355
4976,2.488,2.63597
4977,2.4885,2.64725
4978,2.489,2.64806
4979,2.4895,2.63355
4980,2.49,2.64725
4981,2.4905,2.63839
4982,2.491,2.63194
4983,2.4915,2.62711
4984,2.492,2.63033
4985,2.4925,2.62388
4986,2.493,2.6126
4987,2.4935,2.61905
4988,2.494,2.59004
4989,2.4945,2.59084
4990,2.495,2.58198
4991,2.4955,2.54652
4992,2.496,2.53766
4993,2.4965,2.52557
4994,2.497,2.5167
4995,2.4975,2.51026
4996,2.498,2.50542
4997,2.4985,2.49978
4998,2.499,2.49817
4999,2.4995,2.49495
5000,2.5,2.49817
5001,2.5005,2.51187
5002,2.501,2.5159
5003,2.5015,2.50784
5004,2.502,2.51832
5005,2.5025,2.53685
5006,2.503,2.53443
5007,2.5035,2.52476
5008,2.504,2.51509
5009,2.5045,2.51912
5010,2.505,2.5159
5011,2.5055,2.51348
5012,2.506,2.5159
5013,2.5065,2.51832
5014,2.507,2.50945
5015,2.5075,2.50703
5016,2.508,2.50945
5017,2.5085,2.52073
5018,2.509,2.51832
5019,2.5095,2.50784
5020,2.51,2.52073
5021,2.5105,2.50784
5022,2.511,2.50623
5023,2.5115,2.49897
5024,2.512,2.49656
5025,2.5125,2.503
5026,2.513,2.49736
5027,2.5135,2.49897
5028,2.514,2.50462
5029,2.5145,2.503
5030,2.515,2.50945
5031,2.5155,2.51509
5032,2.516,2.52476
5033,2.5165,2.5304
5034,2.517,2.51832
5035,2.5175,2.5167
5036,2.518,2.53121
5037,2.5185,2.53121
5038,2.519,2.52154
5039,2.5195,2.51912
5040,2.52,2.50623
5041,2.5205,2.49495
5042,2.521,2.49253
5043,2.5215,2.50139
5044,2.522,2.50945
5045,2.5225,2.50139
5046,2.523,2.50542
5047,2.5235,2.51026
5048,2.524,2.503
5049,2.5245,2.49736
5050,2.525,2.49253
5051,2.5255,2.49414
5052,2.526,2.49897
5053,2.5265,2.48769
5054,2.527,2.5159
5055,2.5275,2.51267
5056,2.528,2.52315
5057,2.5285,2.52718
5058,2.529,2.53121
5059,2.5295,2.52557
5060,2.53,2.52476
5061,2.5305,2.53121
5062,2.531,2.53121
5063,2.5315,2.53524
5064,2.532,2.51187
5065,2.5325,2.51832
5066,2.533,2.49978
5067,2.5335,2.49575
5068,2.534,2.50945
5069,2.5345,2.5159
5070,2.535,2.51026
5071,2.5355,2.51187
5072,2.536,2.50462
5073,2.5365,2.51187
5074,2.537,2.51832
5075,2.5375,2.52718
5076,2.538,2.51912
5077,2.5385,2.52799
5078,2.539,2.53604
5079,2.5395,2.53846
5080,2.54,2.54088
5081,2.5405,2.53524
5082,2.541,2.53524
5083,2.5415,2.53927
5084,2.542,2.55055
5085,2.5425,2.53766
5086,2.543,2.54571
5087,2.5435,2.53766
5088,2.544,2.4893
5089,2.5445,2.52557
5090,2.545,2.51832
5091,2.5455,2.52718
5092,2.546,2.51993
5093,2.5465,2.51832
5094,2.547,2.49978
5095,2.5475,2.52315
5096,2.548,2.52557
5097,2.5485,2.52476
5098,2.549,2.5159
5099,2.5495,2.52476
5100,2.55,2.503
5101,2.5505,2.52073
5102,2.551,2.52879
5103,2.5515,2.54652
5104,2.552,2.53927
5105,2.5525,2.55458
5106,2.553,2.53363
5107,2.5535,2.55377
5108,2.554,2.55619
5109,2.5545,2.55055
5110,2.555,2.56505
5111,2.5555,2.56103
5112,2.556,2.55216
5113,2.5565,2.55619
5114,2.557,2.54813
5115,2.5575,2.54007
5116,2.558,2.53766
5117,2.5585,2.52799
5118,2.559,2.50864
5119,2.5595,2.49333
5120,2.56,2.48366
5121,2.5605,2.4893
5122,2.561,2.49333
5123,2.5615,2.49736
5124,2.562,2.49656
5125,2.5625,2.49011
5126,2.563,2.503
5127,2.5635,2.50703
5128,2.564,2.49978
5129,2.5645,2.52476
5130,2.565,2.51348
5131,2.5655,2.51832
5132,2.566,2.52476
5133,2.5665,2.51912
5134,2.567,2.52315
5135,2.5675,2.51751
5136,2.568,2.52073
5137,2.5685,2.5167
5138,2.569,2.51267
5139,2.5695,2.52476
5140,2.57,2.51187
5141,2.5705,2.51026
5142,2.571,2.50703
5143,2.5715,2.50784
5144,2.572,2.50703
5145,2.5725,2.51026
5146,2.573,2.52476
5147,2.5735,2.51832
5148,2.574,2.50945
5149,2.5745,2.5167
5150,2.575,2.52073
5151,2.5755,2.52557
5152,2.576,2.52718
5153,2.5765,2.53443
5154,2.577,2.5433
5155,2.5775,2.55538
5156,2.578,2.58198
5157,2.5785,2.57634
5158,2.579,2.56103
5159,2.5795,2.55377
5160,2.58,2.54491
5161,2.5805,2.5441
5162,2.581,2.54733
5163,2.5815,2.55136
5164,2.582,2.55055
5165,2.5825,2.53927
5166,2.583,2.53927
5167,2.5835,2.53121
5168,2.584,2.52315
5169,2.5845,2.51348
5170,2.585,2.51912
5171,2.5855,2.51751
5172,2.586,2.5159
5173,2.5865,2.52718
5174,2.587,2.5167
5175,2.5875,2.52637
5176,2.588,2.5159
5177,2.5885,2.51912
5178,2.589,2.52879
5179,2.5895,2.53766
5180,2.59,2.53927
5181,2.5905,2.53524
5182,2.591,2.53685
5183,2.5915,2.53121
5184,2.592,2.5433
5185,2.5925,2.56022
5186,2.593,2.55297
5187,2.5935,2.53846
5188,2.594,2.54733
5189,2.5945,2.54571
5190,2.595,2.53766
5191,2.5955,2.54491
5192,2.596,2.53282
5193,2.5965,2.54169
5194,2.597,2.53121
5195,2.5975,2.54169
5196,2.598,2.53524
5197,2.5985,2.54169
5198,2.599,2.53846
5199,2.5995,2.53121
5200,2.6,2.5433
5201,2.6005,2.54491
5202,2.601,2.53927
5203,2.6015,2.54169
5204,2.602,2.53524
5205,2.6025,2.5441
5206,2.603,2.53524
5207,2.6035,2.52799
5208,2.604,2.51187
5209,2.6045,2.51832
5210,2.605,2.53443
5211,2.6055,2.51187
5212,2.606,2.50059
5213,2.6065,2.48608
5214,2.607,2.49253
5215,2.6075,2.49978
5216,2.608,2.50784
5217,2.6085,2.51509
5218,2.609,2.51187
5219,2.6095,2.50864
5220,2.61,2.50381
5221,2.6105,2.50864
5222,2.611,2.50542
5223,2.6115,2.51187
5224,2.612,2.50542
5225,2.6125,2.52557
5226,2.613,2.52476
5227,2.6135,2.52799
5228,2.614,2.51348
5229,2.6145,2.52234
5230,2.615,2.52476
5231,2.6155,2.53766
5232,2.616,2.50381
5233,2.6165,2.5296
5234,2.617,2.52557
5235,2.6175,2.54088
5236,2.618,2.54169
5237,2.6185,2.53604
5238,2.619,2.5022
5239,2.6195,2.52637
5240,2.62,2.5159
5241,2.6205,2.51348
5242,2.621,2.51106
5243,2.6215,2.50623
5244,2.622,2.5159
5245,2.6225,2.52799
5246,2.623,2.53121
5247,2.6235,2.52476
5248,2.624,2.51348
5249,2.6245,2.52073
5250,2.625,2.52799
5251,2.6255,2.54007
5252,2.626,2.54813
5253,2.6265,2.557
5254,2.627,2.56022
5255,2.6275,2.557
5256,2.628,2.53524
5257,2.6285,2.55619
5258,2.629,2.557
5259,2.6295,2.54974
5260,2.63,2.55458
5261,2.6305,2.54571
5262,2.631,2.53524
5263,2.6315,2.52476
5264,2.632,2.52234
5265,2.6325,2.50945
5266,2.633,2.50542
5267,2.6335,2.5167
5268,2.634,2.50864
5269,2.6345,2.50542
5270,2.635,2.503
5271,2.6355,2.503
5272,2.636,2.49575
5273,2.6365,2.49333
5274,2.637,2.47963
5275,2.6375,2.49817
5276,2.638,2.49978
5277,2.6385,2.50139
5278,2.639,2.5159
5279,2.6395,2.52073
5280,2.64,2.52476
5281,2.6405,2.52073
5282,2.641,2.50381
5283,2.6415,2.52234
5284,2.642,2.51187
5285,2.6425,2.503
5286,2.643,2.50542
5287,2.6435,2.51026
5288,2.644,2.50542
5289,2.6445,2.50462
5290,2.645,2.49897
5291,2.6455,2.48608
5292,2.646,2.46432
5293,2.6465,2.46674
5294,2.647,2.47722
5295,2.6475,2.47399
5296,2.648,2.47963
5297,2.6485,2.48608
5298,2.649,2.48044
5299,2.6495,2.49172
5300,2.65,2.503
5301,2.6505,2.51429
5302,2.651,2.5022
5303,2.6515,2.50462
5304,2.652,2.50139
5305,2.6525,2.51751
5306,2.653,2.51429
5307,2.6535,2.50542
5308,2.654,2.52234
5309,2.6545,2.53604
5310,2.655,2.5441
5311,2.6555,2.55377
5312,2.656,2.53282
5313,2.6565,2.52718
5314,2.657,2.53201
5315,2.6575,2.52799
5316,2.658,2.52637
5317,2.6585,2.52879
5318,2.659,2.53524
5319,2.6595,2.53524
5320,2.66,2.55297
5321,2.6605,2.55055
5322,2.661,2.54894
5323,2.6615,2.54249
5324,2.662,2.55216
5325,2.6625,2.55458
5326,2.663,2.56103
5327,2.6635,2.54571
5328,2.664,2.56183
5329,2.6645,2.55458
5330,2.665,2.557
5331,2.6655,2.56747
5332,2.666,2.56747
5333,2.6665,2.58198
5334,2.667,2.5852
5335,2.6675,2.58601
5336,2.668,2.58278
5337,2.6685,2.58762
5338,2.669,2.57231
5339,2.6695,2.56505
5340,2.67,2.5715
5341,2.6705,2.55297
5342,2.671,2.54571
5343,2.6715,2.55136
5344,2.672,2.5433
5345,2.6725,2.53927
5346,2.673,2.54169
5347,2.6735,2.54894
5348,2.674,2.557
5349,2.6745,2.557
5350,2.675,2.54571
5351,2.6755,2.53927
5352,2.676,2.55458
5353,2.6765,2.55458
5354,2.677,2.55941
5355,2.6775,2.55458
5356,2.678,2.55941
5357,2.6785,2.55055
5358,2.679,2.55941
5359,2.6795,2.55941
5360,2.68,2.56989
5361,2.6805,2.57875
5362,2.681,2.5707
5363,2.6815,2.56989
5364,2.682,2.56103
5365,2.6825,2.56505
5366,2.683,2.55941
5367,2.6835,2.56183
5368,2.684,2.54571
5369,2.6845,2.55136
5370,2.685,2.55941
5371,2.6855,2.5578
5372,2.686,2.56667
5373,2.6865,2.56183
5374,2.687,2.56103
5375,2.6875,2.57795
5376,2.688,2.57634
5377,2.6885,2.57714
5378,2.689,2.58117
5379,2.6895,2.58681
5380,2.69,2.58037
5381,2.6905,2.58198
5382,2.691,2.57311
5383,2.6915,2.57714
5384,2.692,2.5844
5385,2.6925,2.58681
5386,2.693,2.60615
5387,2.6935,2.60454
5388,2.694,2.60374
5389,2.6945,2.60454
5390,2.695,2.59326
5391,2.6955,2.58681
5392,2.696,2.58278
5393,2.6965,2.57392
5394,2.697,2.59165
5395,2.6975,2.5844
5396,2.698,2.58278
5397,2.6985,2.58198
5398,2.699,2.57634
5399,2.6995,2.57956
5400,2.7,2.60051
5401,2.7005,2.59004
5402,2.701,2.59084
5403,2.7015,2.59004
5404,2.702,2.59568
5405,2.7025,2.59487
5406,2.703,2.58601
5407,2.7035,2.59326
5408,2.704,2.59165
5409,2.7045,2.58762
5410,2.705,2.58037
5411,2.7055,2.56989
5412,2.706,2.5707
5413,2.7065,2.54813
5414,2.707,2.53766
5415,2.7075,2.52879
5416,2.708,2.52073
5417,2.7085,2.50945
5418,2.709,2.50784
5419,2.7095,2.49414
5420,2.71,2.49656
5421,2.7105,2.4893
5422,2.711,2.4893
5423,2.7115,2.48044
5424,2.712,2.48125
5425,2.7125,2.5022
5426,2.713,2.49414
5427,2.7135,2.49575
5428,2.714,2.4893
5429,2.7145,2.4893
5430,2.715,2.48447
5431,2.7155,2.4885
5432,2.716,2.47963
5433,2.7165,2.48689
5434,2.717,2.47883
5435,2.7175,2.48608
5436,2.718,2.47963
5437,2.7185,2.4885
5438,2.719,2.48689
5439,2.7195,2.48366
5440,2.72,2.48689
5441,2.7205,2.48366
5442,2.721,2.45788
5443,2.7215,2.47963
5444,2.722,2.48044
5445,2.7225,2.49495
5446,2.723,2.49656
5447,2.7235,2.4885
5448,2.724,2.48527
5449,2.7245,2.49011
5450,2.725,2.51187
5451,2.7255,2.52154
5452,2.726,2.52718
5453,2.7265,2.5304
5454,2.727,2.52557
5455,2.7275,2.52718
5456,2.728,2.53363
5457,2.7285,2.5304
5458,2.729,2.52315
5459,2.7295,2.52315
5460,2.73,2.53121
5461,2.7305,2.52637
5462,2.731,2.52476
5463,2.7315,2.53443
5464,2.732,2.53121
5465,2.7325,2.51832
5466,2.733,2.51348
5467,2.7335,2.5159
5468,2.734,2.50462
5469,2.7345,2.50623
5470,2.735,2.49575
5471,2.7355,2.503
5472,2.736,2.50462
5473,2.7365,2.49495
5474,2.737,2.49414
5475,2.7375,2.49172
5476,2.738,2.49495
5477,2.7385,2.49897
5478,2.739,2.50059
5479,2.7395,2.4885
5480,2.74,2.48205
5481,2.7405,2.48689
5482,2.741,2.48366
5483,2.7415,2.49011
5484,2.742,2.50059
5485,2.7425,2.51187
5486,2.743,2.50864
5487,2.7435,2.503
5488,2.744,2.50542
5489,2.7445,2.49897
5490,2.745,2.49011
5491,2.7455,2.48769
5492,2.746,2.48125
5493,2.7465,2.48447
5494,2.747,2.49575
5495,2.7475,2.48447
5496,2.748,2.47883
5497,2.7485,2.49092
5498,2.749,2.49736
5499,2.7495,2.503
5500,2.75,2.51026
5501,2.7505,2.51751
5502,2.751,2.5304
5503,2.7515,2.52718
5504,2.752,2.53766
5505,2.7525,2.5304
5506,2.753,2.52799
5507,2.7535,2.52234
5508,2.754,2.53363
5509,2.7545,2.53846
5510,2.755,2.52154
5511,2.7555,2.53121
5512,2.756,2.53201
5513,2.7565,2.5296
5514,2.757,2.5304
5515,2.7575,2.52879
5516,2.758,2.52476
5517,2.7585,2.51187
5518,2.759,2.51267
5519,2.7595,2.52234
5520,2.76,2.51509
5521,2.7605,2.51187
5522,2.761,2.51832
5523,2.7615,2.51509
5524,2.762,2.52073
5525,2.7625,2.52234
5526,2.763,2.52879
5527,2.7635,2.53604
5528,2.764,2.52234
5529,2.7645,2.5304
5530,2.765,2.52637
5531,2.7655,2.503
5532,2.766,2.50059
5533,2.7665,2.5022
5534,2.767,2.49253
5535,2.7675,2.49656
5536,2.768,2.503
5537,2.7685,2.52637
5538,2.769,2.52476
5539,2.7695,2.52557
5540,2.77,2.50542
5541,2.7705,2.51348
5542,2.771,2.52315
5543,2.7715,2.51912
5544,2.772,2.53524
5545,2.7725,2.54007
5546,2.773,2.5159
5547,2.7735,2.503
5548,2.774,2.49897
5549,2.7745,2.49978
5550,2.775,2.51912
5551,2.7755,2.52799
5552,2.776,2.54652
5553,2.7765,2.56344
5554,2.777,2.58923
5555,2.7775,2.61824
5556,2.778,2.64886
5557,2.7785,2.69399
5558,2.779,2.72462
5559,2.7795,2.7504
5560,2.78,2.75846
5561,2.7805,2.78103
5562,2.781,2.80037
5563,2.7815,2.80842
5564,2.782,2.83824
5565,2.7825,2.85114
5566,2.783,2.86484
5567,2.7835,2.90593
5568,2.784,2.94059
5569,2.7845,2.97604
5570,2.785,2.98974
5571,2.7855,3.03084
5572,2.786,3.0526
5573,2.7865,3.04696
5574,2.787,3.10256
5575,2.7875,3.11788
5576,2.788,3.1219
5577,2.7885,3.13641
5578,2.789,3.13319
5579,2.7895,3.12835
5580,2.79,3.1074
5581,2.7905,3.10256
5582,2.791,3.08725
5583,2.7915,3.09612
5584,2.792,3.08081
5585,2.7925,3.0663
5586,2.793,3.05179
5587,2.7935,3.01311
5588,2.794,2.99055
5589,2.7945,2.96073
5590,2.795,2.90432
5591,2.7955,2.87048
5592,2.796,2.81648
5593,2.7965,2.77458
5594,2.797,2.75121
5595,2.7975,2.72462
5596,2.798,2.723
5597,2.7985,2.68996
5598,2.799,2.66015
5599,2.7995,2.63436
5600,2.8,2.60212
5601,2.8005,2.56505
5602,2.801,2.54571
5603,2.8015,2.53121
5604,2.802,2.53363
5605,2.8025,2.50784
5606,2.803,2.48044
5607,2.8035,2.43934
5608,2.804,2.41678
5609,2.8045,2.38132
5610,2.805,2.30879
5611,2.8055,2.27575
5612,2.806,2.2685
5613,2.8065,2.27736
5614,2.807,2.28784
5615,2.8075,2.28864
5616,2.808,2.27172
5617,2.8085,2.29267
5618,2.809,2.31201
5619,2.8095,2.33538
5620,2.81,2.34425
5621,2.8105,2.35231
5622,2.811,2.37165
5623,2.8115,2.41194
5624,2.812,2.42725
5625,2.8125,2.45788
5626,2.813,2.4756
5627,2.8135,2.50945
5628,2.814,2.51993
5629,2.8145,2.54813
5630,2.815,2.55216
5631,2.8155,2.57473
5632,2.816,2.59165
5633,2.8165,2.59971
5634,2.817,2.60777
5635,2.8175,2.60696
5636,2.818,2.61985
5637,2.8185,2.62147
5638,2.819,2.62147
5639,2.8195,2.61824
5640,2.82,2.62227
5641,2.8205,2.63355
5642,2.821,2.63839
5643,2.8215,2.63275
5644,2.822,2.6126
5645,2.8225,2.59971
5646,2.823,2.60374
5647,2.8235,2.59568
5648,2.824,2.59326
5649,2.8245,2.58359
5650,2.825,2.58681
5651,2.8255,2.56908
5652,2.826,2.56667
5653,2.8265,2.56667
5654,2.827,2.56344
5655,2.8275,2.57956
5656,2.828,2.60132
5657,2.8285,2.60212
5658,2.829,2.59568
5659,2.8295,2.58681
5660,2.83,2.59326
5661,2.8305,2.59326
5662,2.831,2.61421
5663,2.8315,2.60615
5664,2.832,2.5852
5665,2.8325,2.55619
5666,2.833,2.58601
5667,2.8335,2.557
5668,2.834,2.557
5669,2.8345,2.53846
5670,2.835,2.5304
5671,2.8355,2.50462
5672,2.836,2.52637
5673,2.8365,2.53363
5674,2.837,2.52396
5675,2.8375,2.52879
5676,2.838,2.52154
5677,2.8385,2.53121
5678,2.839,2.52396
5679,2.8395,2.53282
5680,2.84,2.53524
5681,2.8405,2.53846
5682,2.841,2.54571
5683,2.8415,2.54652
5684,2.842,2.54169
5685,2.8425,2.5304
5686,2.843,2.52154
5687,2.8435,2.5304
5688,2.844,2.52234
5689,2.8445,2.52234
5690,2.845,2.51348
5691,2.8455,2.52637
5692,2.846,2.51509
5693,2.8465,2.5159
5694,2.847,2.51832
5695,2.8475,2.52718
5696,2.848,2.52396
5697,2.8485,2.51832
5698,2.849,2.53121
5699,2.8495,2.52234
5700,2.85,2.52718
5701,2.8505,2.54007
5702,2.851,2.53927
5703,2.8515,2.54813
5704,2.852,2.56989
5705,2.8525,2.56022
5706,2.853,2.56667
5707,2.8535,2.57714
5708,2.854,2.57875
5709,2.8545,2.59326
5710,2.855,2.58762
5711,2.8555,2.58278
5712,2.856,2.58601
5713,2.8565,2.5852
5714,2.857,2.56747
5715,2.8575,2.56989
5716,2.858,2.58278
5717,2.8585,2.5852
5718,2.859,2.57634
5719,2.8595,2.56667
5720,2.86,2.56828
5721,2.8605,2.557
5722,2.861,2.54974
5723,2.8615,2.54894
5724,2.862,2.557
5725,2.8625,2.55861
5726,2.863,2.56344
5727,2.8635,2.56103
5728,2.864,2.56989
5729,2.8645,2.5715
5730,2.865,2.58681
5731,2.8655,2.59084
5732,2.866,2.59568
5733,2.8665,2.59165
5734,2.867,2.59648
5735,2.8675,2.60051
5736,2.868,2.59568
5737,2.8685,2.59568
5738,2.869,2.59568
5739,2.8695,2.59971
5740,2.87,2.59568
5741,2.8705,2.60615
5742,2.871,2.58359
5743,2.8715,2.58037
5744,2.872,2.57473
5745,2.8725,2.58278
5746,2.873,2.58923
5747,2.8735,2.58601
5748,2.874,2.58681
5749,2.8745,2.58923
5750,2.875,2.59245
5751,2.8755,2.59487
5752,2.876,2.59729
5753,2.8765,2.60696
5754,2.877,2.61179
5755,2.8775,2.61502
5756,2.878,2.61018
5757,2.8785,2.6126
5758,2.879,2.62147
5759,2.8795,2.61502
5760,2.88,2.61905
5761,2.8805,2.61663
5762,2.881,2.61502
5763,2.8815,2.61744
5764,2.882,2.61663
5765,2.8825,2.61905
5766,2.883,2.61421
5767,2.8835,2.60777
5768,2.884,2.59729
5769,2.8845,2.59487
5770,2.885,2.60212
5771,2.8855,2.59971
5772,2.886,2.61018
5773,2.8865,2.60857
5774,2.887,2.60374
5775,2.8875,2.60212
5776,2.888,2.62469
5777,2.8885,2.63355
5778,2.889,2.64725
5779,2.8895,2.66498
5780,2.89,2.67707
5781,2.8905,2.68916
5782,2.891,2.68432
5783,2.8915,2.69883
5784,2.892,2.68835
5785,2.8925,2.68352
5786,2.893,2.67868
5787,2.8935,2.69077
5788,2.894,2.69399
5789,2.8945,2.68352
5790,2.895,2.68593
5791,2.8955,2.67626
5792,2.896,2.66015
5793,2.8965,2.66095
5794,2.897,2.63597
5795,2.8975,2.63194
5796,2.898,2.61905
5797,2.8985,2.62066
5798,2.899,2.63275
5799,2.8995,2.63194
5800,2.9,2.62711
5801,2.9005,2.63033
5802,2.901,2.62791
5803,2.9015,2.64645
5804,2.902,2.64081
5805,2.9025,2.64081
5806,2.903,2.64403
5807,2.9035,2.65934
5808,2.904,2.64725
5809,2.9045,2.65853
5810,2.905,2.65934
5811,2.9055,2.66095
5812,2.906,2.66418
5813,2.9065,2.66176
5814,2.907,2.66095
5815,2.9075,2.66256
5816,2.908,2.66498
5817,2.9085,2.65128
5818,2.909,2.66418
5819,2.9095,2.66015
5820,2.91,2.66901
5821,2.9105,2.66256
5822,2.911,2.66418
5823,2.9115,2.67788
5824,2.912,2.70366
5825,2.9125,2.71656
5826,2.913,2.7093
5827,2.9135,2.69883
5828,2.914,2.71656
5829,2.9145,2.71656
5830,2.915,2.71817
5831,2.9155,2.71978
5832,2.916,2.72623
5833,2.9165,2.73267
5834,2.917,2.73832
5835,2.9175,2.74718
5836,2.918,2.75604
5837,2.9185,2.7504
5838,2.919,2.75282
5839,2.9195,2.7633
5840,2.92,2.77377
5841,2.9205,2.76491
5842,2.921,2.77216
5843,2.9215,2.76974
5844,2.922,2.77861
5845,2.9225,2.76733
5846,2.923,2.77538
5847,2.9235,2.77619
5848,2.924,2.76088
5849,2.9245,2.76168
5850,2.925,2.77377
5851,2.9255,2.777
5852,2.926,2.78103
5853,2.9265,2.78264
5854,2.927,2.79956
5855,2.9275,2.79875
5856,2.928,2.76813
5857,2.9285,2.81004
5858,2.929,2.80923
5859,2.9295,2.80762
5860,2.93,2.81487
5861,2.9305,2.80923
5862,2.931,2.82293
5863,2.9315,2.82212
5864,2.932,2.81165
5865,2.9325,2.81004
5866,2.933,2.8181
5867,2.9335,2.8181
5868,2.934,2.81648
5869,2.9345,2.81648
5870,2.935,2.8189
5871,2.9355,2.83502
5872,2.936,2.82938
5873,2.9365,2.82857
5874,2.937,2.84469
5875,2.9375,2.8463
5876,2.938,2.84066
5877,2.9385,2.86
5878,2.939,2.85919
5879,2.9395,2.87531
5880,2.94,2.87048
5881,2.9405,2.87451
5882,2.941,2.85355
5883,2.9415,2.84791
5884,2.942,2.84711
5885,2.9425,2.84308
5886,2.943,2.84549
5887,2.9435,2.83341
5888,2.944,2.81326
5889,2.9445,2.79875
5890,2.945,2.78908
5891,2.9455,2.79473
5892,2.946,2.80923
5893,2.9465,2.81245
5894,2.947,2.79714
5895,2.9475,2.7915
5896,2.948,2.79311
5897,2.9485,2.8052
5898,2.949,3.05663
5899,2.9495,2.8189
5900,2.95,2.82615
5901,2.9505,2.80198
5902,2.951,2.80359
5903,2.9515,2.81004
5904,2.952,2.80359
5905,2.9525,2.81084
5906,2.953,2.81648
5907,2.9535,2.81487
5908,2.954,2.80601
5909,2.9545,2.81326
5910,2.955,2.81648
5911,2.9555,2.8189
5912,2.956,2.82454
5913,2.9565,2.82696
5914,2.957,2.81568
5915,2.9575,2.79634
5916,2.958,2.79875
5917,2.9585,2.8044
5918,2.959,2.78908
5919,2.9595,2.79311
5920,2.96,2.78505
5921,2.9605,2.77619
5922,2.961,2.78022
5923,2.9615,2.77619
5924,2.962,2.78183
5925,2.9625,2.77941
5926,2.963,2.77458
5927,2.9635,2.77619
5928,2.964,2.77458
5929,2.9645,2.79795
5930,2.965,2.79311
5931,2.9655,2.7907
5932,2.966,2.78103
5933,2.9665,2.78022
5934,2.967,2.77216
5935,2.9675,2.77377
5936,2.968,2.75766
5937,2.9685,2.75282
5938,2.969,2.74154
5939,2.9695,2.73509
5940,2.97,2.72864
5941,2.9705,2.71736
5942,2.971,2.71011
5943,2.9715,2.71172
5944,2.972,2.70608
5945,2.9725,2.69722
5946,2.973,2.6811
5947,2.9735,2.6811
5948,2.974,2.67626
5949,2.9745,2.6811
5950,2.975,2.67223
5951,2.9755,2.67546
5952,2.976,2.68593
5953,2.9765,2.67304
5954,2.977,2.67385
5955,2.9775,2.66498
5956,2.978,2.66015
5957,2.9785,2.64886
5958,2.979,2.63919
